{
  "AcquisitionMatrixPE": 110,
  "AcquisitionNumber": 1,
  "AcquisitionTime": "11:18:5.122500",
  "BandwidthPerPixelPhaseEncode": 26.35,
  "BaseResolution": 110,
  "CoilString": "C:HEA;HEP",
  "ConversionSoftware": "dcm2niix",
  "ConversionSoftwareVersion": "v1.0.20190410  GCC6.3.0",
  "DerivedVendorReportedEchoSpacing": 0.000690012,
  "DeviceSerialNumber": "35422",
  "DwellTime": 2.6e-06,
  "EchoTime": 0.03,
  "EffectiveEchoSpacing": 0.000345006,
  "FlipAngle": 85,
  "ImageComments": "Unaliased_MB4_PE4_LB",
  "ImageOrientationPatientDICOM": [0.999687, -0.00211851, -0.0249263, 1.51521e-10, 0.996408, -0.0846858],
  "ImageType": [
    "ORIGINAL",
    "PRIMARY",
    "FMRI",
    "NONE",
    "MB",
    "ND",
    "MOSAIC"
],
  "ImagingFrequency": 123.177,
  "InPlanePhaseEncodingDirectionDICOM": "ROW",
  "InstitutionAddress": "kwanakro_599_C4F276_Seoul_KR_ZIP",
  "InstitutionName": "SNUBIC",
  "InstitutionalDepartmentName": "Department",
  "MRAcquisitionType": "2D",
  "MagneticFieldStrength": 3,
  "Manufacturer": "Siemens",
  "ManufacturersModelName": "TrioTim",
  "Modality": "MR",
  "MultibandAccelerationFactor": 4,
  "ParallelReductionFactorInPlane": 2,
  "PartialFourier": 1,
  "PatientPosition": "HFS",
  "PercentPhaseFOV": 100,
  "PhaseEncodingDirection": "i-",
  "PhaseEncodingSteps": 110,
  "PhaseResolution": 1,
  "PixelBandwidth": 1748,
  "ProcedureStepDescription": "SNU_SAVED",
  "ProtocolName": "WMGNG1_MB4_LR_SBRef",
  "PulseSequenceDetails": "%CustomerSeq%_cmrr_mbep2d_bold",
  "ReceiveCoilName": "32Ch_Head",
  "ReconMatrixPE": 110,
  "RefLinesPE": 32,
  "RepetitionTime": 1.5,
  "SAR": 0.114929,
  "ScanOptions": "FS",
  "ScanningSequence": "EP",
  "SequenceName": "epfid2d1_110",
  "SequenceVariant": "SK_SS",
  "SeriesDescription": "WMGNG1_MB4_LR_SBRef",
  "SeriesNumber": 3,
  "ShimSetting": [-4132, -29535, -2122, 814, 53, 661, -246, -33],
  "SliceThickness": 2.3,
  "SliceTiming": [0, 0.6575, 1.315, 0.47, 1.1275, 0.28, 0.94, 0.0925, 0.7525, 1.41, 0.5625, 1.2225, 0.375, 1.035, 0.1875, 0.845, 0, 0.6575, 1.315, 0.47, 1.1275, 0.28, 0.94, 0.0925, 0.7525, 1.41, 0.5625, 1.2225, 0.375, 1.035, 0.1875, 0.845, 0, 0.6575, 1.315, 0.47, 1.1275, 0.28, 0.94, 0.0925, 0.7525, 1.41, 0.5625, 1.2225, 0.375, 1.035, 0.1875, 0.845, 0, 0.6575, 1.315, 0.47, 1.1275, 0.28, 0.94, 0.0925, 0.7525, 1.41, 0.5625, 1.2225, 0.375, 1.035, 0.1875, 0.845],
  "SoftwareVersions": "syngo_MR_B17",
  "SpacingBetweenSlices": 2.3,
  "StationName": "MRC35422",
  "TaskName": "wmgng",
  "TotalReadoutTime": 0.0376057,
  "TxRefAmp": 300.194,
  "dcmmeta_affine": [
    [-2.3265442848205566, 3.52631146505189e-10, -0.057537101209163666, 127.88035583496094],
    [0.004930352326482534, 2.3189125061035156, -0.19471636414527893, -105.6500473022461],
    [-0.05801021307706833, 0.19708691537380219, 2.291020631790161, -59.066253662109375],
    [0.0, 0.0, 0.0, 1.0]
],
  "dcmmeta_reorient_transform": [
    [0.0, -1.0, 0.0, 109.0],
    [1.0, 0.0, 0.0, 0.0],
    [0.0, 0.0, 1.0, 0.0],
    [0.0, 0.0, 0.0, 1.0]
],
  "dcmmeta_shape": [110, 110, 64, 357],
  "dcmmeta_slice_dim": 2,
  "dcmmeta_version": 0.6,
  "global": {
    "const": {
      "AcquisitionMatrix": [0, 110, 110, 0],
      "AngioFlag": "N",
      "BitsAllocated": 16,
      "BitsStored": 12,
      "Columns": 880,
      "EchoNumbers": 1,
      "EchoTime": 30.0,
      "EchoTrainLength": 1,
      "FlipAngle": 85.0,
      "HighBit": 11,
      "ImageOrientationPatient": [0.99968704764501, -0.0021185108856, -0.0249262649115, 1.515212e-10, 0.99640770625001, -0.0846857893958],
      "ImagePositionPatient": [-1023.599924423, -1037.9944976885, 60.628619573125],
      "ImageType": [
        "ORIGINAL",
        "PRIMARY",
        "FMRI",
        "NONE",
        "MB",
        "ND",
        "MOSAIC"
],
      "ImagedNucleus": "1H",
      "ImagingFrequency": 123.177441,
      "InPlanePhaseEncodingDirection": "ROW",
      "MRAcquisitionType": "2D",
      "MagneticFieldStrength": 3.0,
      "Manufacturer": "SIEMENS",
      "ManufacturerModelName": "TrioTim",
      "Modality": "MR",
      "NumberOfAverages": 1.0,
      "NumberOfPhaseEncodingSteps": 110,
      "PercentPhaseFieldOfView": 100.0,
      "PercentSampling": 100.0,
      "PerformedProcedureStepStartTime": "110646.953000",
      "PhotometricInterpretation": "MONOCHROME2",
      "PixelBandwidth": 1748.0,
      "PixelRepresentation": 0,
      "PixelSpacing": [2.3272726535797, 2.3272726535797],
      "ProtocolName": "WMGNG1_MB4_LR_SBRef",
      "ReferencedPerformedProcedureStepSequence": [
        {
          "ReferencedSOPClassUID": "1.2.840.10008.3.1.2.3.3",
          "ReferencedSOPInstanceUID": "1.3.12.2.1107.5.2.32.35422.30000020011402064696800000000"}
],
      "RepetitionTime": 1500.0,
      "Rows": 880,
      "SAR": 0.1149287465715,
      "SamplesPerPixel": 1,
      "ScanOptions": "FS",
      "ScanningSequence": "EP",
      "SequenceName": "epfid2d1_110",
      "SequenceVariant": [
        "SK",
        "SS"
],
      "SeriesDescription": "WMGNG1_MB4_LR_SBRef",
      "SeriesNumber": 3,
      "SeriesTime": "111938.187000",
      "SliceLocation": -53.090464792978,
      "SliceThickness": 2.2999999523163,
      "SmallestImagePixelValue": 0,
      "SoftwareVersions": "syngo MR B17",
      "SpacingBetweenSlices": 2.3000000697962,
      "SpecificCharacterSet": "ISO_IR 100",
      "StudyID": "1",
      "StudyTime": "110646.781000",
      "TransmitCoilName": "Body",
      "VariableFlipAngleFlag": "N",
      "WindowCenterWidthExplanation": "Algo1",
      "dBdt": 0.0},
    "slices": {}
  },
  "time": {
    "samples": {
      "AcquisitionNumber": [1, 2, 3, 4, 5, 6, 7, 8, 9, 10, 11, 12, 13, 14, 15, 16, 17, 18, 19, 20, 21, 22, 23, 24, 25, 26, 27, 28, 29, 30, 31, 32, 33, 34, 35, 36, 37, 38, 39, 40, 41, 42, 43, 44, 45, 46, 47, 48, 49, 50, 51, 52, 53, 54, 55, 56, 57, 58, 59, 60, 61, 62, 63, 64, 65, 66, 67, 68, 69, 70, 71, 72, 73, 74, 75, 76, 77, 78, 79, 80, 81, 82, 83, 84, 85, 86, 87, 88, 89, 90, 91, 92, 93, 94, 95, 96, 97, 98, 99, 100, 101, 102, 103, 104, 105, 106, 107, 108, 109, 110, 111, 112, 113, 114, 115, 116, 117, 118, 119, 120, 121, 122, 123, 124, 125, 126, 127, 128, 129, 130, 131, 132, 133, 134, 135, 136, 137, 138, 139, 140, 141, 142, 143, 144, 145, 146, 147, 148, 149, 150, 151, 152, 153, 154, 155, 156, 157, 158, 159, 160, 161, 162, 163, 164, 165, 166, 167, 168, 169, 170, 171, 172, 173, 174, 175, 176, 177, 178, 179, 180, 181, 182, 183, 184, 185, 186, 187, 188, 189, 190, 191, 192, 193, 194, 195, 196, 197, 198, 199, 200, 201, 202, 203, 204, 205, 206, 207, 208, 209, 210, 211, 212, 213, 214, 215, 216, 217, 218, 219, 220, 221, 222, 223, 224, 225, 226, 227, 228, 229, 230, 231, 232, 233, 234, 235, 236, 237, 238, 239, 240, 241, 242, 243, 244, 245, 246, 247, 248, 249, 250, 251, 252, 253, 254, 255, 256, 257, 258, 259, 260, 261, 262, 263, 264, 265, 266, 267, 268, 269, 270, 271, 272, 273, 274, 275, 276, 277, 278, 279, 280, 281, 282, 283, 284, 285, 286, 287, 288, 289, 290, 291, 292, 293, 294, 295, 296, 297, 298, 299, 300, 301, 302, 303, 304, 305, 306, 307, 308, 309, 310, 311, 312, 313, 314, 315, 316, 317, 318, 319, 320, 321, 322, 323, 324, 325, 326, 327, 328, 329, 330, 331, 332, 333, 334, 335, 336, 337, 338, 339, 340, 341, 342, 343, 344, 345, 346, 347, 348, 349, 350, 351, 352, 353, 354, 355, 356, 357],
      "AcquisitionTime": ["111805.122500", "111806.627500", "111808.132500", "111809.640000", "111811.145000", "111812.652500", "111814.157500", "111815.662500", "111817.170000", "111818.675000", "111820.182500", "111821.687500", "111823.192500", "111824.700000", "111826.205000", "111827.712500", "111829.217500", "111830.725000", "111832.230000", "111833.735000", "111835.242500", "111836.747500", "111838.255000", "111839.760000", "111841.265000", "111842.772500", "111844.277500", "111845.785000", "111847.290000", "111848.795000", "111850.302500", "111851.807500", "111853.315000", "111854.820000", "111856.325000", "111857.832500", "111859.337500", "111900.845000", "111902.350000", "111903.857500", "111905.362500", "111906.867500", "111908.375000", "111909.880000", "111911.387500", "111912.892500", "111914.397500", "111915.905000", "111917.410000", "111918.917500", "111920.422500", "111921.927500", "111923.435000", "111924.940000", "111926.447500", "111927.952500", "111929.457500", "111930.965000", "111932.470000", "111933.977500", "111935.482500", "111936.990000", "111938.495000", "111940.000000", "111941.507500", "111943.012500", "111944.520000", "111946.025000", "111947.530000", "111949.037500", "111950.542500", "111952.050000", "111953.555000", "111955.060000", "111956.567500", "111958.072500", "111959.580000", "112001.085000", "112002.590000", "112004.097500", "112005.602500", "112007.110000", "112008.615000", "112010.122500", "112011.627500", "112013.132500", "112014.640000", "112016.145000", "112017.652500", "112019.157500", "112020.662500", "112022.170000", "112023.675000", "112025.182500", "112026.687500", "112028.192500", "112029.700000", "112031.205000", "112032.712500", "112034.217500", "112035.725000", "112037.230000", "112038.735000", "112040.242500", "112041.747500", "112043.255000", "112044.760000", "112046.265000", "112047.772500", "112049.277500", "112050.785000", "112052.290000", "112053.795000", "112055.302500", "112056.807500", "112058.315000", "112059.820000", "112101.325000", "112102.832500", "112104.337500", "112105.845000", "112107.350000", "112108.857500", "112110.362500", "112111.867500", "112113.375000", "112114.880000", "112116.387500", "112117.892500", "112119.397500", "112120.905000", "112122.410000", "112123.917500", "112125.422500", "112126.927500", "112128.435000", "112129.940000", "112131.447500", "112132.952500", "112134.457500", "112135.965000", "112137.470000", "112138.977500", "112140.482500", "112141.990000", "112143.495000", "112145.000000", "112146.507500", "112148.012500", "112149.520000", "112151.025000", "112152.530000", "112154.037500", "112155.542500", "112157.050000", "112158.555000", "112200.060000", "112201.567500", "112203.072500", "112204.580000", "112206.085000", "112207.590000", "112209.097500", "112210.602500", "112212.110000", "112213.615000", "112215.122500", "112216.627500", "112218.132500", "112219.640000", "112221.145000", "112222.652500", "112224.157500", "112225.662500", "112227.170000", "112228.675000", "112230.182500", "112231.687500", "112233.192500", "112234.700000", "112236.205000", "112237.712500", "112239.217500", "112240.725000", "112242.230000", "112243.735000", "112245.242500", "112246.747500", "112248.255000", "112249.760000", "112251.265000", "112252.772500", "112254.277500", "112255.785000", "112257.290000", "112258.795000", "112300.302500", "112301.807500", "112303.315000", "112304.820000", "112306.325000", "112307.832500", "112309.337500", "112310.845000", "112312.350000", "112313.857500", "112315.362500", "112316.867500", "112318.375000", "112319.880000", "112321.387500", "112322.892500", "112324.397500", "112325.905000", "112327.410000", "112328.917500", "112330.422500", "112331.927500", "112333.435000", "112334.940000", "112336.447500", "112337.952500", "112339.457500", "112340.965000", "112342.470000", "112343.977500", "112345.482500", "112346.990000", "112348.495000", "112350.000000", "112351.507500", "112353.012500", "112354.520000", "112356.025000", "112357.530000", "112359.037500", "112400.542500", "112402.050000", "112403.555000", "112405.060000", "112406.567500", "112408.072500", "112409.580000", "112411.085000", "112412.590000", "112414.097500", "112415.602500", "112417.110000", "112418.615000", "112420.122500", "112421.627500", "112423.132500", "112424.640000", "112426.145000", "112427.652500", "112429.157500", "112430.662500", "112432.170000", "112433.675000", "112435.182500", "112436.687500", "112438.192500", "112439.700000", "112441.205000", "112442.712500", "112444.217500", "112445.725000", "112447.230000", "112448.735000", "112450.242500", "112451.747500", "112453.255000", "112454.760000", "112456.265000", "112457.772500", "112459.277500", "112500.785000", "112502.290000", "112503.795000", "112505.302500", "112506.807500", "112508.315000", "112509.820000", "112511.325000", "112512.832500", "112514.337500", "112515.845000", "112517.350000", "112518.857500", "112520.362500", "112521.867500", "112523.375000", "112524.880000", "112526.387500", "112527.892500", "112529.397500", "112530.905000", "112532.410000", "112533.917500", "112535.422500", "112536.927500", "112538.435000", "112539.940000", "112541.447500", "112542.952500", "112544.457500", "112545.965000", "112547.470000", "112548.977500", "112550.482500", "112551.990000", "112553.495000", "112555.000000", "112556.507500", "112558.012500", "112559.520000", "112601.025000", "112602.530000", "112604.037500", "112605.542500", "112607.050000", "112608.555000", "112610.060000", "112611.567500", "112613.072500", "112614.580000", "112616.085000", "112617.590000", "112619.097500", "112620.602500", "112622.110000", "112623.615000", "112625.122500", "112626.627500", "112628.132500", "112629.640000", "112631.145000", "112632.652500", "112634.157500", "112635.662500", "112637.170000", "112638.675000", "112640.182500", "112641.687500", "112643.192500", "112644.700000", "112646.205000", "112647.712500", "112649.217500", "112650.725000", "112652.230000", "112653.735000", "112655.242500", "112656.747500", "112658.255000", "112659.760000", "112701.265000"],
      "ContentTime": ["111938.203000", "111938.218000", "111938.218000", "111938.218000", "111938.218000", "111938.218000", "111938.218000", "111938.218000", "111938.218000", "111938.218000", "111938.234000", "111938.234000", "111938.234000", "111938.234000", "111938.234000", "111938.234000", "111938.234000", "111938.234000", "111938.234000", "111938.250000", "111938.250000", "111938.250000", "111938.250000", "111938.265000", "111938.265000", "111938.265000", "112038.187000", "112038.187000", "112038.187000", "112038.187000", "112038.187000", "112038.187000", "112038.187000", "112038.187000", "112038.187000", "112038.203000", "112038.203000", "112038.203000", "112038.203000", "112038.203000", "112038.203000", "112038.203000", "112038.203000", "112038.203000", "112038.218000", "112038.218000", "112038.218000", "112038.218000", "112038.218000", "112038.218000", "112038.218000", "112038.234000", "112138.187000", "112138.187000", "112138.187000", "112138.187000", "112138.203000", "112138.203000", "112138.203000", "112138.203000", "112138.203000", "112138.203000", "112138.203000", "112138.203000", "112138.218000", "112138.218000", "112138.218000", "112138.218000", "112138.218000", "112138.218000", "112138.218000", "112138.218000", "112138.234000", "112138.234000", "112138.234000", "112138.234000", "112138.234000", "112138.234000", "112138.234000", "112238.187000", "112238.187000", "112238.187000", "112238.187000", "112238.187000", "112238.187000", "112238.187000", "112238.187000", "112238.187000", "112238.203000", "112238.203000", "112238.203000", "112238.218000", "112238.218000", "112238.218000", "112238.218000", "112238.218000", "112238.218000", "112238.218000", "112238.218000", "112238.234000", "112238.234000", "112238.234000", "112238.234000", "112238.234000", "112238.234000", "112338.187000", "112338.187000", "112338.187000", "112338.187000", "112338.187000", "112338.187000", "112338.203000", "112338.203000", "112338.203000", "112338.203000", "112338.203000", "112338.203000", "112338.203000", "112338.218000", "112338.218000", "112338.218000", "112338.218000", "112338.218000", "112338.218000", "112338.218000", "112338.218000", "112338.218000", "112338.234000", "112338.234000", "112338.234000", "112338.234000", "112438.187000", "112438.187000", "112438.187000", "112438.187000", "112438.187000", "112438.187000", "112438.187000", "112438.187000", "112438.203000", "112438.203000", "112438.203000", "112438.203000", "112438.203000", "112438.218000", "112438.218000", "112438.218000", "112438.218000", "112438.218000", "112438.218000", "112438.234000", "112438.234000", "112438.234000", "112438.234000", "112438.234000", "112438.234000", "112438.234000", "112538.187000", "112538.187000", "112538.187000", "112538.187000", "112538.187000", "112538.187000", "112538.187000", "112538.187000", "112538.187000", "112538.203000", "112538.203000", "112538.203000", "112538.203000", "112538.218000", "112538.218000", "112538.218000", "112538.218000", "112538.218000", "112538.218000", "112538.218000", "112538.218000", "112538.218000", "112538.234000", "112538.234000", "112538.234000", "112538.234000", "112538.234000", "112638.187000", "112638.203000", "112638.203000", "112638.203000", "112638.203000", "112638.218000", "112638.218000", "112638.234000", "112638.234000", "112638.234000", "112638.250000", "112638.250000", "112638.250000", "112638.250000", "112638.250000", "112638.250000", "112638.250000", "112638.250000", "112638.265000", "112638.265000", "112638.265000", "112638.265000", "112638.265000", "112638.265000", "112638.265000", "112638.265000", "112738.187000", "112738.187000", "112738.187000", "112738.187000", "112738.187000", "112738.187000", "112738.187000", "112738.187000", "112738.203000", "112738.203000", "112738.203000", "112738.203000", "112738.203000", "112738.218000", "112738.218000", "112738.218000", "112738.218000", "112738.218000", "112738.234000", "112738.234000", "112738.234000", "112738.234000", "112738.234000", "112738.234000", "112738.234000", "112738.234000", "112838.187000", "112838.187000", "112838.187000", "112838.187000", "112838.187000", "112838.187000", "112838.187000", "112838.187000", "112838.187000", "112838.203000", "112838.203000", "112838.203000", "112838.218000", "112838.218000", "112838.218000", "112838.218000", "112838.218000", "112838.218000", "112838.218000", "112838.218000", "112838.218000", "112838.234000", "112838.234000", "112838.234000", "112838.234000", "112838.234000", "112938.187000", "112938.203000", "112938.203000", "112938.203000", "112938.203000", "112938.203000", "112938.203000", "112938.203000", "112938.218000", "112938.218000", "112938.218000", "112938.218000", "112938.218000", "112938.234000", "112938.234000", "112938.234000", "112938.234000", "112938.234000", "112938.250000", "112938.250000", "112938.250000", "112938.250000", "112938.250000", "112938.250000", "112938.250000", "112938.265000", "113038.187000", "113038.234000", "113038.250000", "113038.250000", "113038.250000", "113038.250000", "113038.250000", "113038.265000", "113038.265000", "113038.265000", "113038.265000", "113038.265000", "113038.265000", "113038.265000", "113038.265000", "113038.265000", "113038.281000", "113038.281000", "113038.281000", "113038.281000", "113038.281000", "113038.281000", "113038.296000", "113038.296000", "113038.296000", "113038.296000", "113038.296000", "113138.187000", "113138.187000", "113138.187000", "113138.187000", "113138.187000", "113138.187000", "113138.187000", "113138.187000", "113138.187000", "113138.203000", "113138.203000", "113138.203000", "113138.203000", "113138.203000", "113138.203000", "113138.203000", "113138.203000", "113138.203000", "113138.218000", "113138.218000", "113138.218000", "113138.218000", "113138.218000", "113138.218000", "113138.218000", "113138.218000", "113214.000000", "113214.000000", "113214.015000", "113214.015000", "113214.015000", "113214.015000", "113214.015000", "113214.031000", "113214.031000", "113214.031000", "113214.031000", "113214.031000", "113214.031000", "113214.031000", "113214.031000", "113214.031000"],
      "DataSetTrailingPadding": [
        "\u0000\u0000\u0000\u0000\u0000\u0000\u0000\u0000\u0000\u0000\u0000\u0000\u0000\u0000\u0000\u0000\u0000\u0000\u0000\u0000\u0000\u0000\u0000\u0000\u0000\u0000\u0000\u0000\u0000\u0000\u0000\u0000\u0000\u0000\u0000\u0000\u0000\u0000\u0000\u0000\u0000\u0000\u0000\u0000\u0000\u0000\u0000\u0000\u0000\u0000\u0000\u0000\u0000\u0000\u0000\u0000\u0000\u0000\u0000\u0000\u0000\u0000\u0000\u0000\u0000\u0000\u0000\u0000\u0000\u0000\u0000\u0000\u0000\u0000\u0000\u0000\u0000\u0000\u0000\u0000\u0000\u0000\u0000\u0000\u0000\u0000\u0000\u0000\u0000\u0000\u0000\u0000\u0000\u0000\u0000\u0000\u0000\u0000\u0000\u0000\u0000\u0000\u0000\u0000\u0000\u0000\u0000\u0000\u0000\u0000\u0000\u0000\u0000\u0000\u0000\u0000\u0000\u0000\u0000\u0000\u0000\u0000\u0000\u0000\u0000\u0000\u0000\u0000\u0000\u0000\u0000\u0000",
        "\u0000\u0000\u0000\u0000\u0000\u0000\u0000\u0000\u0000\u0000\u0000\u0000\u0000\u0000\u0000\u0000\u0000\u0000\u0000\u0000\u0000\u0000\u0000\u0000\u0000\u0000\u0000\u0000\u0000\u0000\u0000\u0000\u0000\u0000\u0000\u0000\u0000\u0000\u0000\u0000\u0000\u0000\u0000\u0000\u0000\u0000\u0000\u0000\u0000\u0000\u0000\u0000\u0000\u0000\u0000\u0000\u0000\u0000\u0000\u0000\u0000\u0000\u0000\u0000\u0000\u0000\u0000\u0000\u0000\u0000\u0000\u0000\u0000\u0000\u0000\u0000\u0000\u0000\u0000\u0000\u0000\u0000\u0000\u0000\u0000\u0000\u0000\u0000\u0000\u0000\u0000\u0000\u0000\u0000\u0000\u0000\u0000\u0000\u0000\u0000\u0000\u0000\u0000\u0000\u0000\u0000\u0000\u0000\u0000\u0000\u0000\u0000\u0000\u0000\u0000\u0000\u0000\u0000\u0000\u0000\u0000\u0000\u0000\u0000\u0000\u0000\u0000\u0000\u0000\u0000",
        "\u0000\u0000\u0000\u0000\u0000\u0000\u0000\u0000\u0000\u0000\u0000\u0000\u0000\u0000\u0000\u0000\u0000\u0000\u0000\u0000\u0000\u0000\u0000\u0000\u0000\u0000\u0000\u0000\u0000\u0000\u0000\u0000\u0000\u0000\u0000\u0000\u0000\u0000\u0000\u0000\u0000\u0000\u0000\u0000\u0000\u0000\u0000\u0000\u0000\u0000\u0000\u0000\u0000\u0000\u0000\u0000\u0000\u0000\u0000\u0000\u0000\u0000\u0000\u0000\u0000\u0000\u0000\u0000\u0000\u0000\u0000\u0000\u0000\u0000\u0000\u0000\u0000\u0000\u0000\u0000\u0000\u0000\u0000\u0000\u0000\u0000\u0000\u0000\u0000\u0000\u0000\u0000\u0000\u0000\u0000\u0000\u0000\u0000\u0000\u0000\u0000\u0000\u0000\u0000\u0000\u0000\u0000\u0000\u0000\u0000\u0000\u0000\u0000\u0000\u0000\u0000\u0000\u0000\u0000\u0000\u0000\u0000\u0000\u0000\u0000\u0000\u0000\u0000\u0000\u0000",
        "\u0000\u0000\u0000\u0000\u0000\u0000\u0000\u0000\u0000\u0000\u0000\u0000\u0000\u0000\u0000\u0000\u0000\u0000\u0000\u0000\u0000\u0000\u0000\u0000\u0000\u0000\u0000\u0000\u0000\u0000\u0000\u0000\u0000\u0000\u0000\u0000\u0000\u0000\u0000\u0000\u0000\u0000\u0000\u0000\u0000\u0000\u0000\u0000\u0000\u0000\u0000\u0000\u0000\u0000\u0000\u0000\u0000\u0000\u0000\u0000\u0000\u0000\u0000\u0000\u0000\u0000\u0000\u0000\u0000\u0000\u0000\u0000\u0000\u0000\u0000\u0000\u0000\u0000\u0000\u0000\u0000\u0000\u0000\u0000\u0000\u0000\u0000\u0000\u0000\u0000\u0000\u0000\u0000\u0000\u0000\u0000\u0000\u0000\u0000\u0000\u0000\u0000\u0000\u0000\u0000\u0000\u0000\u0000\u0000\u0000\u0000\u0000\u0000\u0000\u0000\u0000\u0000\u0000\u0000\u0000\u0000\u0000\u0000\u0000\u0000\u0000\u0000\u0000\u0000\u0000",
        "\u0000\u0000\u0000\u0000\u0000\u0000\u0000\u0000\u0000\u0000\u0000\u0000\u0000\u0000\u0000\u0000\u0000\u0000\u0000\u0000\u0000\u0000\u0000\u0000\u0000\u0000\u0000\u0000\u0000\u0000\u0000\u0000\u0000\u0000\u0000\u0000\u0000\u0000\u0000\u0000\u0000\u0000\u0000\u0000\u0000\u0000\u0000\u0000\u0000\u0000\u0000\u0000\u0000\u0000\u0000\u0000\u0000\u0000\u0000\u0000\u0000\u0000\u0000\u0000\u0000\u0000\u0000\u0000\u0000\u0000\u0000\u0000\u0000\u0000\u0000\u0000\u0000\u0000\u0000\u0000\u0000\u0000\u0000\u0000\u0000\u0000\u0000\u0000\u0000\u0000\u0000\u0000\u0000\u0000\u0000\u0000\u0000\u0000\u0000\u0000\u0000\u0000\u0000\u0000\u0000\u0000\u0000\u0000\u0000\u0000\u0000\u0000\u0000\u0000\u0000\u0000\u0000\u0000\u0000\u0000\u0000\u0000\u0000\u0000\u0000\u0000\u0000\u0000\u0000\u0000\u0000\u0000",
        "\u0000\u0000\u0000\u0000\u0000\u0000\u0000\u0000\u0000\u0000\u0000\u0000\u0000\u0000\u0000\u0000\u0000\u0000\u0000\u0000\u0000\u0000\u0000\u0000\u0000\u0000\u0000\u0000\u0000\u0000\u0000\u0000\u0000\u0000\u0000\u0000\u0000\u0000\u0000\u0000\u0000\u0000\u0000\u0000\u0000\u0000\u0000\u0000\u0000\u0000\u0000\u0000\u0000\u0000\u0000\u0000\u0000\u0000\u0000\u0000\u0000\u0000\u0000\u0000\u0000\u0000\u0000\u0000\u0000\u0000\u0000\u0000\u0000\u0000\u0000\u0000\u0000\u0000\u0000\u0000\u0000\u0000\u0000\u0000\u0000\u0000\u0000\u0000\u0000\u0000\u0000\u0000\u0000\u0000\u0000\u0000\u0000\u0000\u0000\u0000\u0000\u0000\u0000\u0000\u0000\u0000\u0000\u0000\u0000\u0000\u0000\u0000\u0000\u0000\u0000\u0000\u0000\u0000\u0000\u0000\u0000\u0000\u0000\u0000\u0000\u0000\u0000\u0000\u0000\u0000\u0000\u0000",
        "\u0000\u0000\u0000\u0000\u0000\u0000\u0000\u0000\u0000\u0000\u0000\u0000\u0000\u0000\u0000\u0000\u0000\u0000\u0000\u0000\u0000\u0000\u0000\u0000\u0000\u0000\u0000\u0000\u0000\u0000\u0000\u0000\u0000\u0000\u0000\u0000\u0000\u0000\u0000\u0000\u0000\u0000\u0000\u0000\u0000\u0000\u0000\u0000\u0000\u0000\u0000\u0000\u0000\u0000\u0000\u0000\u0000\u0000\u0000\u0000\u0000\u0000\u0000\u0000\u0000\u0000\u0000\u0000\u0000\u0000\u0000\u0000\u0000\u0000\u0000\u0000\u0000\u0000\u0000\u0000\u0000\u0000\u0000\u0000\u0000\u0000\u0000\u0000\u0000\u0000\u0000\u0000\u0000\u0000\u0000\u0000\u0000\u0000\u0000\u0000\u0000\u0000\u0000\u0000\u0000\u0000\u0000\u0000\u0000\u0000\u0000\u0000\u0000\u0000\u0000\u0000\u0000\u0000\u0000\u0000\u0000\u0000\u0000\u0000\u0000\u0000\u0000\u0000\u0000\u0000",
        "\u0000\u0000\u0000\u0000\u0000\u0000\u0000\u0000\u0000\u0000\u0000\u0000\u0000\u0000\u0000\u0000\u0000\u0000\u0000\u0000\u0000\u0000\u0000\u0000\u0000\u0000\u0000\u0000\u0000\u0000\u0000\u0000\u0000\u0000\u0000\u0000\u0000\u0000\u0000\u0000\u0000\u0000\u0000\u0000\u0000\u0000\u0000\u0000\u0000\u0000\u0000\u0000\u0000\u0000\u0000\u0000\u0000\u0000\u0000\u0000\u0000\u0000\u0000\u0000\u0000\u0000\u0000\u0000\u0000\u0000\u0000\u0000\u0000\u0000\u0000\u0000\u0000\u0000\u0000\u0000\u0000\u0000\u0000\u0000\u0000\u0000\u0000\u0000\u0000\u0000\u0000\u0000\u0000\u0000\u0000\u0000\u0000\u0000\u0000\u0000\u0000\u0000\u0000\u0000\u0000\u0000\u0000\u0000\u0000\u0000\u0000\u0000\u0000\u0000\u0000\u0000\u0000\u0000\u0000\u0000\u0000\u0000\u0000\u0000\u0000\u0000\u0000\u0000\u0000\u0000",
        "\u0000\u0000\u0000\u0000\u0000\u0000\u0000\u0000\u0000\u0000\u0000\u0000\u0000\u0000\u0000\u0000\u0000\u0000\u0000\u0000\u0000\u0000\u0000\u0000\u0000\u0000\u0000\u0000\u0000\u0000\u0000\u0000\u0000\u0000\u0000\u0000\u0000\u0000\u0000\u0000\u0000\u0000\u0000\u0000\u0000\u0000\u0000\u0000\u0000\u0000\u0000\u0000\u0000\u0000\u0000\u0000\u0000\u0000\u0000\u0000\u0000\u0000\u0000\u0000\u0000\u0000\u0000\u0000\u0000\u0000\u0000\u0000\u0000\u0000\u0000\u0000\u0000\u0000\u0000\u0000\u0000\u0000\u0000\u0000\u0000\u0000\u0000\u0000\u0000\u0000\u0000\u0000\u0000\u0000\u0000\u0000\u0000\u0000\u0000\u0000\u0000\u0000\u0000\u0000\u0000\u0000\u0000\u0000\u0000\u0000\u0000\u0000\u0000\u0000\u0000\u0000\u0000\u0000\u0000\u0000\u0000\u0000\u0000\u0000\u0000\u0000\u0000\u0000\u0000\u0000",
        "\u0000\u0000\u0000\u0000\u0000\u0000\u0000\u0000\u0000\u0000\u0000\u0000\u0000\u0000\u0000\u0000\u0000\u0000\u0000\u0000\u0000\u0000\u0000\u0000\u0000\u0000\u0000\u0000\u0000\u0000\u0000\u0000\u0000\u0000\u0000\u0000\u0000\u0000\u0000\u0000\u0000\u0000\u0000\u0000\u0000\u0000\u0000\u0000\u0000\u0000\u0000\u0000\u0000\u0000\u0000\u0000\u0000\u0000\u0000\u0000\u0000\u0000\u0000\u0000\u0000\u0000\u0000\u0000\u0000\u0000\u0000\u0000\u0000\u0000\u0000\u0000\u0000\u0000\u0000\u0000\u0000\u0000\u0000\u0000\u0000\u0000\u0000\u0000\u0000\u0000\u0000\u0000\u0000\u0000\u0000\u0000\u0000\u0000\u0000\u0000\u0000\u0000\u0000\u0000\u0000\u0000\u0000\u0000\u0000\u0000\u0000\u0000\u0000\u0000\u0000\u0000\u0000\u0000\u0000\u0000\u0000\u0000\u0000\u0000\u0000\u0000\u0000\u0000",
        "\u0000\u0000\u0000\u0000\u0000\u0000\u0000\u0000\u0000\u0000\u0000\u0000\u0000\u0000\u0000\u0000\u0000\u0000\u0000\u0000\u0000\u0000\u0000\u0000\u0000\u0000\u0000\u0000\u0000\u0000\u0000\u0000\u0000\u0000\u0000\u0000\u0000\u0000\u0000\u0000\u0000\u0000\u0000\u0000\u0000\u0000\u0000\u0000\u0000\u0000\u0000\u0000\u0000\u0000\u0000\u0000\u0000\u0000\u0000\u0000\u0000\u0000\u0000\u0000\u0000\u0000\u0000\u0000\u0000\u0000\u0000\u0000\u0000\u0000\u0000\u0000\u0000\u0000\u0000\u0000\u0000\u0000\u0000\u0000\u0000\u0000\u0000\u0000\u0000\u0000\u0000\u0000\u0000\u0000\u0000\u0000\u0000\u0000\u0000\u0000\u0000\u0000\u0000\u0000\u0000\u0000\u0000\u0000\u0000\u0000\u0000\u0000\u0000\u0000\u0000\u0000\u0000\u0000\u0000\u0000\u0000\u0000\u0000\u0000\u0000\u0000\u0000\u0000",
        "\u0000\u0000\u0000\u0000\u0000\u0000\u0000\u0000\u0000\u0000\u0000\u0000\u0000\u0000\u0000\u0000\u0000\u0000\u0000\u0000\u0000\u0000\u0000\u0000\u0000\u0000\u0000\u0000\u0000\u0000\u0000\u0000\u0000\u0000\u0000\u0000\u0000\u0000\u0000\u0000\u0000\u0000\u0000\u0000\u0000\u0000\u0000\u0000\u0000\u0000\u0000\u0000\u0000\u0000\u0000\u0000\u0000\u0000\u0000\u0000\u0000\u0000\u0000\u0000\u0000\u0000\u0000\u0000\u0000\u0000\u0000\u0000\u0000\u0000\u0000\u0000\u0000\u0000\u0000\u0000\u0000\u0000\u0000\u0000\u0000\u0000\u0000\u0000\u0000\u0000\u0000\u0000\u0000\u0000\u0000\u0000\u0000\u0000\u0000\u0000\u0000\u0000\u0000\u0000\u0000\u0000\u0000\u0000\u0000\u0000\u0000\u0000\u0000\u0000\u0000\u0000\u0000\u0000\u0000\u0000\u0000\u0000\u0000\u0000\u0000\u0000",
        "\u0000\u0000\u0000\u0000\u0000\u0000\u0000\u0000\u0000\u0000\u0000\u0000\u0000\u0000\u0000\u0000\u0000\u0000\u0000\u0000\u0000\u0000\u0000\u0000\u0000\u0000\u0000\u0000\u0000\u0000\u0000\u0000\u0000\u0000\u0000\u0000\u0000\u0000\u0000\u0000\u0000\u0000\u0000\u0000\u0000\u0000\u0000\u0000\u0000\u0000\u0000\u0000\u0000\u0000\u0000\u0000\u0000\u0000\u0000\u0000\u0000\u0000\u0000\u0000\u0000\u0000\u0000\u0000\u0000\u0000\u0000\u0000\u0000\u0000\u0000\u0000\u0000\u0000\u0000\u0000\u0000\u0000\u0000\u0000\u0000\u0000\u0000\u0000\u0000\u0000\u0000\u0000\u0000\u0000\u0000\u0000\u0000\u0000\u0000\u0000\u0000\u0000\u0000\u0000\u0000\u0000\u0000\u0000\u0000\u0000\u0000\u0000\u0000\u0000\u0000\u0000\u0000\u0000\u0000\u0000\u0000\u0000\u0000\u0000\u0000\u0000",
