{
  "AcquisitionMatrixPE": 110,
  "AcquisitionNumber": 1,
  "AcquisitionTime": "10:35:34.575000",
  "BandwidthPerPixelPhaseEncode": 26.35,
  "BaseResolution": 110,
  "CoilString": "C:HEA;HEP",
  "ConversionSoftware": "dcm2niix",
  "ConversionSoftwareVersion": "v1.0.20190410  GCC6.3.0",
  "DerivedVendorReportedEchoSpacing": 0.000690012,
  "DeviceSerialNumber": "35422",
  "DwellTime": 2.6e-06,
  "EchoTime": 0.03,
  "EffectiveEchoSpacing": 0.000345006,
  "FlipAngle": 85,
  "ImageComments": "Unaliased_MB4_PE4_LB",
  "ImageOrientationPatientDICOM": [0.999782, 0.00145653, 0.0208241, 1.60042e-10, 0.997563, -0.069774],
  "ImageType": [
    "ORIGINAL",
    "PRIMARY",
    "FMRI",
    "NONE",
    "MB",
    "ND",
    "MOSAIC"
],
  "ImagingFrequency": 123.177,
  "InPlanePhaseEncodingDirectionDICOM": "ROW",
  "InstitutionAddress": "kwanakro_599_C6F879_Seoul_KR_ZIP",
  "InstitutionName": "SNUBIC",
  "InstitutionalDepartmentName": "Department",
  "MRAcquisitionType": "2D",
  "MagneticFieldStrength": 3,
  "Manufacturer": "Siemens",
  "ManufacturersModelName": "TrioTim",
  "Modality": "MR",
  "MultibandAccelerationFactor": 4,
  "ParallelReductionFactorInPlane": 2,
  "PartialFourier": 1,
  "PatientPosition": "HFS",
  "PercentPhaseFOV": 100,
  "PhaseEncodingDirection": "i-",
  "PhaseEncodingSteps": 110,
  "PhaseResolution": 1,
  "PixelBandwidth": 1748,
  "ProcedureStepDescription": "SNU_SAVED",
  "ProtocolName": "WMGNG1_MB4_LR_SBRef",
  "PulseSequenceDetails": "%CustomerSeq%_cmrr_mbep2d_bold",
  "ReceiveCoilName": "32Ch_Head",
  "ReconMatrixPE": 110,
  "RefLinesPE": 32,
  "RepetitionTime": 1.5,
  "SAR": 0.0973796,
  "ScanOptions": "FS",
  "ScanningSequence": "EP",
  "SequenceName": "epfid2d1_110",
  "SequenceVariant": "SK_SS",
  "SeriesDescription": "WMGNG1_MB4_LR_SBRef",
  "SeriesNumber": 5,
  "ShimSetting": [-4114, -29740, -2038, 912, -154, 254, -16, -122],
  "SliceThickness": 2.3,
  "SliceTiming": [0, 0.6575, 1.315, 0.47, 1.1275, 0.28, 0.94, 0.0925, 0.7525, 1.41, 0.5625, 1.2225, 0.375, 1.035, 0.1875, 0.845, 0, 0.6575, 1.315, 0.47, 1.1275, 0.28, 0.94, 0.0925, 0.7525, 1.41, 0.5625, 1.2225, 0.375, 1.035, 0.1875, 0.845, 0, 0.6575, 1.315, 0.47, 1.1275, 0.28, 0.94, 0.0925, 0.7525, 1.41, 0.5625, 1.2225, 0.375, 1.035, 0.1875, 0.845, 0, 0.6575, 1.315, 0.47, 1.1275, 0.28, 0.94, 0.0925, 0.7525, 1.41, 0.5625, 1.2225, 0.375, 1.035, 0.1875, 0.845],
  "SoftwareVersions": "syngo_MR_B17",
  "SpacingBetweenSlices": 2.3,
  "StationName": "MRC35422",
  "TaskName": "wmgng",
  "TotalReadoutTime": 0.0376057,
  "TxRefAmp": 293.603,
  "dcmmeta_affine": [
    [-2.326765537261963, 3.724611452593507e-10, 0.04801241308450699, 130.05589294433594],
    [-0.0033897394314408302, 2.3216006755828857, -0.16044515371322632, -114.4274673461914],
    [0.04846332594752312, 0.1623830497264862, 2.2938945293426514, -57.52436828613281],
    [0.0, 0.0, 0.0, 1.0]
],
  "dcmmeta_reorient_transform": [
    [0.0, -1.0, 0.0, 109.0],
    [1.0, 0.0, 0.0, 0.0],
    [0.0, 0.0, 1.0, 0.0],
    [0.0, 0.0, 0.0, 1.0]
],
  "dcmmeta_shape": [110, 110, 64, 357],
  "dcmmeta_slice_dim": 2,
  "dcmmeta_version": 0.6,
  "global": {
    "const": {
      "AcquisitionMatrix": [0, 110, 110, 0],
      "AngioFlag": "N",
      "BitsAllocated": 16,
      "BitsStored": 12,
      "Columns": 880,
      "EchoNumbers": 1,
      "EchoTime": 30.0,
      "EchoTrainLength": 1,
      "FlipAngle": 85.0,
      "HighBit": 11,
      "ImageOrientationPatient": [0.99978209425586, 0.00145652870873, 0.02082408532152, 1.600419e-10, 0.99756282681109, -0.0697739676718],
      "ImagePositionPatient": [-1025.8606280499, -1033.7483206182, 4.0344756079884],
      "ImageType": [
        "ORIGINAL",
        "PRIMARY",
        "FMRI",
        "NONE",
        "MB",
        "ND",
        "MOSAIC"
],
      "ImagedNucleus": "1H",
      "ImagingFrequency": 123.177257,
      "InPlanePhaseEncodingDirection": "ROW",
      "MRAcquisitionType": "2D",
      "MagneticFieldStrength": 3.0,
      "Manufacturer": "SIEMENS",
      "ManufacturerModelName": "TrioTim",
      "Modality": "MR",
      "NumberOfAverages": 1.0,
      "NumberOfPhaseEncodingSteps": 110,
      "PercentPhaseFieldOfView": 100.0,
      "PercentSampling": 100.0,
      "PerformedProcedureStepStartTime": "101604.125000",
      "PhotometricInterpretation": "MONOCHROME2",
      "PixelBandwidth": 1748.0,
      "PixelRepresentation": 0,
      "PixelSpacing": [2.3272726535797, 2.3272726535797],
      "ProtocolName": "WMGNG1_MB4_LR_SBRef",
      "ReferencedPerformedProcedureStepSequence": [
        {
          "ReferencedSOPClassUID": "1.2.840.10008.3.1.2.3.3",
          "ReferencedSOPInstanceUID": "1.3.12.2.1107.5.2.32.35422.30000020082701160415600000000"}
],
      "RepetitionTime": 1500.0,
      "Rows": 880,
      "SAR": 0.09737960962098,
      "SamplesPerPixel": 1,
      "ScanOptions": "FS",
      "ScanningSequence": "EP",
      "SequenceName": "epfid2d1_110",
      "SequenceVariant": [
        "SK",
        "SS"
],
      "SeriesDescription": "WMGNG1_MB4_LR_SBRef",
      "SeriesNumber": 5,
      "SeriesTime": "103610.171000",
      "SliceLocation": -46.67443793142,
      "SliceThickness": 2.2999999523163,
      "SmallestImagePixelValue": 0,
      "SoftwareVersions": "syngo MR B17",
      "SpacingBetweenSlices": 2.3000000306869,
      "SpecificCharacterSet": "ISO_IR 100",
      "StudyID": "1",
      "StudyTime": "101603.953000",
      "TransmitCoilName": "Body",
      "VariableFlipAngleFlag": "N",
      "WindowCenterWidthExplanation": "Algo1",
      "dBdt": 0.0},
    "slices": {}
  },
  "time": {
    "samples": {
      "AcquisitionNumber": [1, 2, 3, 4, 5, 6, 7, 8, 9, 10, 11, 12, 13, 14, 15, 16, 17, 18, 19, 20, 21, 22, 23, 24, 25, 26, 27, 28, 29, 30, 31, 32, 33, 34, 35, 36, 37, 38, 39, 40, 41, 42, 43, 44, 45, 46, 47, 48, 49, 50, 51, 52, 53, 54, 55, 56, 57, 58, 59, 60, 61, 62, 63, 64, 65, 66, 67, 68, 69, 70, 71, 72, 73, 74, 75, 76, 77, 78, 79, 80, 81, 82, 83, 84, 85, 86, 87, 88, 89, 90, 91, 92, 93, 94, 95, 96, 97, 98, 99, 100, 101, 102, 103, 104, 105, 106, 107, 108, 109, 110, 111, 112, 113, 114, 115, 116, 117, 118, 119, 120, 121, 122, 123, 124, 125, 126, 127, 128, 129, 130, 131, 132, 133, 134, 135, 136, 137, 138, 139, 140, 141, 142, 143, 144, 145, 146, 147, 148, 149, 150, 151, 152, 153, 154, 155, 156, 157, 158, 159, 160, 161, 162, 163, 164, 165, 166, 167, 168, 169, 170, 171, 172, 173, 174, 175, 176, 177, 178, 179, 180, 181, 182, 183, 184, 185, 186, 187, 188, 189, 190, 191, 192, 193, 194, 195, 196, 197, 198, 199, 200, 201, 202, 203, 204, 205, 206, 207, 208, 209, 210, 211, 212, 213, 214, 215, 216, 217, 218, 219, 220, 221, 222, 223, 224, 225, 226, 227, 228, 229, 230, 231, 232, 233, 234, 235, 236, 237, 238, 239, 240, 241, 242, 243, 244, 245, 246, 247, 248, 249, 250, 251, 252, 253, 254, 255, 256, 257, 258, 259, 260, 261, 262, 263, 264, 265, 266, 267, 268, 269, 270, 271, 272, 273, 274, 275, 276, 277, 278, 279, 280, 281, 282, 283, 284, 285, 286, 287, 288, 289, 290, 291, 292, 293, 294, 295, 296, 297, 298, 299, 300, 301, 302, 303, 304, 305, 306, 307, 308, 309, 310, 311, 312, 313, 314, 315, 316, 317, 318, 319, 320, 321, 322, 323, 324, 325, 326, 327, 328, 329, 330, 331, 332, 333, 334, 335, 336, 337, 338, 339, 340, 341, 342, 343, 344, 345, 346, 347, 348, 349, 350, 351, 352, 353, 354, 355, 356, 357],
      "AcquisitionTime": ["103534.575000", "103536.080000", "103537.585000", "103539.092500", "103540.597500", "103542.105000", "103543.610000", "103545.115000", "103546.622500", "103548.127500", "103549.635000", "103551.140000", "103552.645000", "103554.152500", "103555.657500", "103557.165000", "103558.670000", "103600.175000", "103601.682500", "103603.187500", "103604.695000", "103606.200000", "103607.707500", "103609.212500", "103610.717500", "103612.225000", "103613.730000", "103615.237500", "103616.742500", "103618.247500", "103619.755000", "103621.260000", "103622.767500", "103624.272500", "103625.777500", "103627.285000", "103628.790000", "103630.297500", "103631.802500", "103633.307500", "103634.815000", "103636.320000", "103637.827500", "103639.332500", "103640.840000", "103642.345000", "103643.850000", "103645.357500", "103646.862500", "103648.370000", "103649.875000", "103651.380000", "103652.887500", "103654.392500", "103655.900000", "103657.405000", "103658.910000", "103700.417500", "103701.922500", "103703.430000", "103704.935000", "103706.442500", "103707.947500", "103709.452500", "103710.960000", "103712.465000", "103713.972500", "103715.477500", "103716.982500", "103718.490000", "103719.995000", "103721.502500", "103723.007500", "103724.512500", "103726.020000", "103727.525000", "103729.032500", "103730.537500", "103732.042500", "103733.550000", "103735.055000", "103736.562500", "103738.067500", "103739.575000", "103741.080000", "103742.585000", "103744.092500", "103745.597500", "103747.105000", "103748.610000", "103750.115000", "103751.622500", "103753.127500", "103754.635000", "103756.140000", "103757.645000", "103759.152500", "103800.657500", "103802.165000", "103803.670000", "103805.175000", "103806.682500", "103808.187500", "103809.695000", "103811.200000", "103812.707500", "103814.212500", "103815.717500", "103817.225000", "103818.730000", "103820.237500", "103821.742500", "103823.247500", "103824.755000", "103826.260000", "103827.767500", "103829.272500", "103830.777500", "103832.285000", "103833.790000", "103835.297500", "103836.802500", "103838.307500", "103839.815000", "103841.320000", "103842.827500", "103844.332500", "103845.840000", "103847.345000", "103848.850000", "103850.357500", "103851.862500", "103853.370000", "103854.875000", "103856.380000", "103857.887500", "103859.392500", "103900.900000", "103902.405000", "103903.910000", "103905.417500", "103906.922500", "103908.430000", "103909.935000", "103911.442500", "103912.947500", "103914.452500", "103915.960000", "103917.465000", "103918.972500", "103920.477500", "103921.982500", "103923.490000", "103924.995000", "103926.502500", "103928.007500", "103929.512500", "103931.020000", "103932.525000", "103934.032500", "103935.537500", "103937.042500", "103938.550000", "103940.055000", "103941.562500", "103943.067500", "103944.575000", "103946.080000", "103947.585000", "103949.092500", "103950.597500", "103952.105000", "103953.610000", "103955.115000", "103956.622500", "103958.127500", "103959.635000", "104001.140000", "104002.645000", "104004.152500", "104005.657500", "104007.165000", "104008.670000", "104010.175000", "104011.682500", "104013.187500", "104014.695000", "104016.200000", "104017.707500", "104019.212500", "104020.717500", "104022.225000", "104023.730000", "104025.237500", "104026.742500", "104028.247500", "104029.755000", "104031.260000", "104032.767500", "104034.272500", "104035.777500", "104037.285000", "104038.790000", "104040.297500", "104041.802500", "104043.307500", "104044.815000", "104046.320000", "104047.827500", "104049.332500", "104050.840000", "104052.345000", "104053.850000", "104055.357500", "104056.862500", "104058.370000", "104059.875000", "104101.380000", "104102.887500", "104104.392500", "104105.900000", "104107.405000", "104108.910000", "104110.417500", "104111.922500", "104113.430000", "104114.935000", "104116.442500", "104117.947500", "104119.452500", "104120.960000", "104122.465000", "104123.972500", "104125.477500", "104126.982500", "104128.490000", "104129.995000", "104131.502500", "104133.007500", "104134.512500", "104136.020000", "104137.525000", "104139.032500", "104140.537500", "104142.042500", "104143.550000", "104145.055000", "104146.562500", "104148.067500", "104149.575000", "104151.080000", "104152.585000", "104154.092500", "104155.597500", "104157.105000", "104158.610000", "104200.115000", "104201.622500", "104203.127500", "104204.635000", "104206.140000", "104207.645000", "104209.152500", "104210.657500", "104212.165000", "104213.670000", "104215.175000", "104216.682500", "104218.187500", "104219.695000", "104221.200000", "104222.707500", "104224.212500", "104225.717500", "104227.225000", "104228.730000", "104230.237500", "104231.742500", "104233.247500", "104234.755000", "104236.260000", "104237.767500", "104239.272500", "104240.777500", "104242.285000", "104243.790000", "104245.297500", "104246.802500", "104248.307500", "104249.815000", "104251.320000", "104252.827500", "104254.332500", "104255.840000", "104257.345000", "104258.850000", "104300.357500", "104301.862500", "104303.370000", "104304.875000", "104306.380000", "104307.887500", "104309.392500", "104310.900000", "104312.405000", "104313.910000", "104315.417500", "104316.922500", "104318.430000", "104319.935000", "104321.442500", "104322.947500", "104324.452500", "104325.960000", "104327.465000", "104328.972500", "104330.477500", "104331.982500", "104333.490000", "104334.995000", "104336.502500", "104338.007500", "104339.512500", "104341.020000", "104342.525000", "104344.032500", "104345.537500", "104347.042500", "104348.550000", "104350.055000", "104351.562500", "104353.067500", "104354.575000", "104356.080000", "104357.585000", "104359.092500", "104400.597500", "104402.105000", "104403.610000", "104405.115000", "104406.622500", "104408.127500", "104409.635000", "104411.140000", "104412.645000", "104414.152500", "104415.657500", "104417.165000", "104418.670000", "104420.175000", "104421.682500", "104423.187500", "104424.695000", "104426.200000", "104427.707500", "104429.212500", "104430.717500"],
      "ContentTime": ["103610.203000", "103612.671000", "103614.671000", "103616.171000", "103618.671000", "103620.671000", "103622.671000", "103625.171000", "103627.171000", "103629.671000", "103631.671000", "103634.171000", "103636.671000", "103638.671000", "103641.171000", "103643.671000", "103646.171000", "103648.171000", "103650.671000", "103652.671000", "103655.171000", "103657.171000", "103659.671000", "103702.171000", "103704.171000", "103706.171000", "103708.671000", "103710.671000", "103713.671000", "103715.171000", "103718.171000", "103720.671000", "103722.171000", "103725.171000", "103727.171000", "103729.671000", "103731.171000", "103734.171000", "103736.171000", "103738.171000", "103740.171000", "103742.671000", "103745.171000", "103747.171000", "103750.171000", "103752.171000", "103754.171000", "103756.671000", "103759.171000", "103801.171000", "103803.671000", "103805.671000", "103807.671000", "103810.171000", "103813.171000", "103815.171000", "103817.171000", "103819.671000", "103821.671000", "103823.671000", "103826.171000", "103828.171000", "103830.671000", "103833.171000", "103835.671000", "103837.671000", "103840.171000", "103842.171000", "103844.671000", "103846.671000", "103848.671000", "103851.671000", "103853.671000", "103856.171000", "103858.171000", "103900.671000", "103902.671000", "103905.671000", "103907.671000", "103909.671000", "103912.171000", "103914.671000", "103916.671000", "103919.171000", "103921.671000", "103923.671000", "103926.171000", "103928.171000", "103930.671000", "103932.671000", "103934.671000", "103937.671000", "103939.671000", "103941.671000", "103944.171000", "103946.171000", "103948.671000", "103951.171000", "103953.171000", "103955.671000", "103957.671000", "104000.171000", "104002.671000", "104004.671000", "104006.671000", "104009.171000", "104011.671000", "104013.671000", "104016.671000", "104018.671000", "104021.171000", "104023.171000", "104025.171000", "104027.671000", "104029.671000", "104032.171000", "104034.171000", "104036.671000", "104039.671000", "104041.171000", "104043.671000", "104045.671000", "104048.171000", "104050.671000", "104052.671000", "104054.671000", "104056.671000", "104059.171000", "104101.671000", "104103.671000", "104106.171000", "104108.171000", "104110.671000", "104113.171000", "104115.171000", "104117.671000", "104119.671000", "104121.671000", "104124.671000", "104126.671000", "104128.671000", "104131.171000", "104133.171000", "104135.171000", "104137.671000", "104139.671000", "104142.171000", "104144.671000", "104147.171000", "104149.171000", "104151.671000", "104153.671000", "104155.671000", "104158.171000", "104200.171000", "104202.671000", "104205.171000", "104207.671000", "104209.671000", "104211.671000", "104214.171000", "104216.171000", "104218.671000", "104221.171000", "104223.171000", "104225.671000", "104228.171000", "104230.171000", "104233.171000", "104234.671000", "104236.671000", "104239.671000", "104242.171000", "104244.171000", "104246.671000", "104248.671000", "104250.671000", "104253.171000", "104255.171000", "104257.671000", "104300.171000", "104302.171000", "104304.671000", "104306.671000", "104309.171000", "104311.171000", "104313.671000", "104315.671000", "104318.671000", "104320.671000", "104323.171000", "104325.171000", "104327.171000", "104330.171000", "104331.671000", "104334.171000", "104336.671000", "104339.171000", "104341.171000", "104343.671000", "104345.671000", "104347.671000", "104350.171000", "104352.671000", "104354.671000", "104357.171000", "104359.171000", "104401.671000", "104403.671000", "104406.671000", "104408.171000", "104410.171000", "104412.671000", "104415.171000", "104417.171000", "104419.671000", "104421.671000", "104424.171000", "104426.671000", "104428.671000", "104430.671000", "104433.171000", "104435.171000", "104437.671000", "104440.171000", "104442.671000", "104445.171000", "104447.171000", "104449.671000", "104452.171000", "104454.171000", "104456.671000", "104458.671000", "104500.671000", "104503.171000", "104505.671000", "104507.671000", "104510.171000", "104512.671000", "104515.171000", "104517.171000", "104519.171000", "104521.671000", "104523.671000", "104526.171000", "104528.671000", "104530.671000", "104533.671000", "104535.671000", "104538.171000", "104540.171000", "104542.171000", "104544.671000", "104546.671000", "104548.671000", "104551.171000", "104553.171000", "104556.171000", "104558.171000", "104600.671000", "104603.171000", "104605.171000", "104607.171000", "104609.671000", "104612.171000", "104614.171000", "104616.671000", "104618.671000", "104620.671000", "104623.671000", "104626.171000", "104628.671000", "104630.671000", "104632.671000", "104635.171000", "104637.171000", "104639.171000", "104642.171000", "104644.671000", "104646.171000", "104648.671000", "104651.171000", "104653.171000", "104655.671000", "104658.171000", "104700.171000", "104703.171000", "104705.171000", "104707.671000", "104709.671000", "104712.671000", "104714.671000", "104716.671000", "104718.671000", "104721.171000", "104723.171000", "104726.171000", "104728.171000", "104730.171000", "104732.671000", "104734.671000", "104737.171000", "104739.171000", "104741.671000", "104744.671000", "104746.171000", "104748.671000", "104751.171000", "104753.671000", "104755.671000", "104757.671000", "104800.171000", "104802.671000", "104804.671000", "104807.171000", "104809.671000", "104811.671000", "104813.671000", "104816.171000", "104818.671000", "104820.671000", "104823.671000", "104825.671000", "104827.671000", "104830.171000", "104832.171000", "104834.671000", "104836.671000", "104839.671000", "104841.171000", "104844.171000", "104845.671000", "104848.171000", "104850.671000", "104852.671000", "104855.671000", "104857.671000", "104859.671000", "104902.171000", "104904.671000", "104906.671000", "104909.171000", "104911.171000", "104913.671000", "104915.671000", "104918.171000", "104920.171000", "104922.671000", "104924.671000", "104927.671000", "104929.671000", "104932.171000", "104934.171000", "104936.671000", "104938.671000", "104941.171000", "104943.171000"],
      "DataSetTrailingPadding": [
        "\u0000\u0000\u0000\u0000\u0000\u0000\u0000\u0000\u0000\u0000\u0000\u0000\u0000\u0000\u0000\u0000\u0000\u0000\u0000\u0000\u0000\u0000\u0000\u0000\u0000\u0000\u0000\u0000\u0000\u0000\u0000\u0000\u0000\u0000\u0000\u0000\u0000\u0000\u0000\u0000\u0000\u0000\u0000\u0000\u0000\u0000\u0000\u0000\u0000\u0000\u0000\u0000\u0000\u0000",
        "\u0000\u0000\u0000\u0000\u0000\u0000\u0000\u0000\u0000\u0000\u0000\u0000\u0000\u0000\u0000\u0000\u0000\u0000\u0000\u0000\u0000\u0000\u0000\u0000\u0000\u0000\u0000\u0000\u0000\u0000\u0000\u0000\u0000\u0000\u0000\u0000\u0000\u0000\u0000\u0000\u0000\u0000\u0000\u0000\u0000\u0000\u0000\u0000\u0000\u0000",
        "\u0000\u0000\u0000\u0000\u0000\u0000\u0000\u0000\u0000\u0000\u0000\u0000\u0000\u0000\u0000\u0000\u0000\u0000\u0000\u0000\u0000\u0000\u0000\u0000\u0000\u0000\u0000\u0000\u0000\u0000\u0000\u0000\u0000\u0000\u0000\u0000\u0000\u0000\u0000\u0000\u0000\u0000\u0000\u0000\u0000\u0000\u0000\u0000\u0000\u0000",
        "\u0000\u0000\u0000\u0000\u0000\u0000\u0000\u0000\u0000\u0000\u0000\u0000\u0000\u0000\u0000\u0000\u0000\u0000\u0000\u0000\u0000\u0000\u0000\u0000\u0000\u0000\u0000\u0000\u0000\u0000\u0000\u0000\u0000\u0000\u0000\u0000\u0000\u0000\u0000\u0000\u0000\u0000\u0000\u0000\u0000\u0000\u0000\u0000\u0000\u0000",
        "\u0000\u0000\u0000\u0000\u0000\u0000\u0000\u0000\u0000\u0000\u0000\u0000\u0000\u0000\u0000\u0000\u0000\u0000\u0000\u0000\u0000\u0000\u0000\u0000\u0000\u0000\u0000\u0000\u0000\u0000\u0000\u0000\u0000\u0000\u0000\u0000\u0000\u0000\u0000\u0000\u0000\u0000\u0000\u0000\u0000\u0000\u0000\u0000\u0000\u0000\u0000\u0000",
        "\u0000\u0000\u0000\u0000\u0000\u0000\u0000\u0000\u0000\u0000\u0000\u0000\u0000\u0000\u0000\u0000\u0000\u0000\u0000\u0000\u0000\u0000\u0000\u0000\u0000\u0000\u0000\u0000\u0000\u0000\u0000\u0000\u0000\u0000\u0000\u0000\u0000\u0000\u0000\u0000\u0000\u0000\u0000\u0000\u0000\u0000\u0000\u0000\u0000\u0000\u0000\u0000",
        "\u0000\u0000\u0000\u0000\u0000\u0000\u0000\u0000\u0000\u0000\u0000\u0000\u0000\u0000\u0000\u0000\u0000\u0000\u0000\u0000\u0000\u0000\u0000\u0000\u0000\u0000\u0000\u0000\u0000\u0000\u0000\u0000\u0000\u0000\u0000\u0000\u0000\u0000\u0000\u0000\u0000\u0000\u0000\u0000\u0000\u0000\u0000\u0000\u0000\u0000",
        "\u0000\u0000\u0000\u0000\u0000\u0000\u0000\u0000\u0000\u0000\u0000\u0000\u0000\u0000\u0000\u0000\u0000\u0000\u0000\u0000\u0000\u0000\u0000\u0000\u0000\u0000\u0000\u0000\u0000\u0000\u0000\u0000\u0000\u0000\u0000\u0000\u0000\u0000\u0000\u0000\u0000\u0000\u0000\u0000\u0000\u0000\u0000\u0000\u0000\u0000",
        "\u0000\u0000\u0000\u0000\u0000\u0000\u0000\u0000\u0000\u0000\u0000\u0000\u0000\u0000\u0000\u0000\u0000\u0000\u0000\u0000\u0000\u0000\u0000\u0000\u0000\u0000\u0000\u0000\u0000\u0000\u0000\u0000\u0000\u0000\u0000\u0000\u0000\u0000\u0000\u0000\u0000\u0000\u0000\u0000\u0000\u0000\u0000\u0000\u0000\u0000",
        "\u0000\u0000\u0000\u0000\u0000\u0000\u0000\u0000\u0000\u0000\u0000\u0000\u0000\u0000\u0000\u0000\u0000\u0000\u0000\u0000\u0000\u0000\u0000\u0000\u0000\u0000\u0000\u0000\u0000\u0000\u0000\u0000\u0000\u0000\u0000\u0000\u0000\u0000\u0000\u0000\u0000\u0000\u0000\u0000\u0000\u0000\u0000\u0000",
        "\u0000\u0000\u0000\u0000\u0000\u0000\u0000\u0000\u0000\u0000\u0000\u0000\u0000\u0000\u0000\u0000\u0000\u0000\u0000\u0000\u0000\u0000\u0000\u0000\u0000\u0000\u0000\u0000\u0000\u0000\u0000\u0000\u0000\u0000\u0000\u0000\u0000\u0000\u0000\u0000\u0000\u0000\u0000\u0000\u0000\u0000\u0000\u0000",
        "\u0000\u0000\u0000\u0000\u0000\u0000\u0000\u0000\u0000\u0000\u0000\u0000\u0000\u0000\u0000\u0000\u0000\u0000\u0000\u0000\u0000\u0000\u0000\u0000\u0000\u0000\u0000\u0000\u0000\u0000\u0000\u0000\u0000\u0000\u0000\u0000\u0000\u0000\u0000\u0000\u0000\u0000\u0000\u0000\u0000\u0000",
        "\u0000\u0000\u0000\u0000\u0000\u0000\u0000\u0000\u0000\u0000\u0000\u0000\u0000\u0000\u0000\u0000\u0000\u0000\u0000\u0000\u0000\u0000\u0000\u0000\u0000\u0000\u0000\u0000\u0000\u0000\u0000\u0000\u0000\u0000\u0000\u0000\u0000\u0000\u0000\u0000\u0000\u0000\u0000\u0000\u0000\u0000",
        "\u0000\u0000\u0000\u0000\u0000\u0000\u0000\u0000\u0000\u0000\u0000\u0000\u0000\u0000\u0000\u0000\u0000\u0000\u0000\u0000\u0000\u0000\u0000\u0000\u0000\u0000\u0000\u0000\u0000\u0000\u0000\u0000\u0000\u0000\u0000\u0000\u0000\u0000\u0000\u0000\u0000\u0000\u0000\u0000\u0000\u0000",
        "\u0000\u0000\u0000\u0000\u0000\u0000\u0000\u0000\u0000\u0000\u0000\u0000\u0000\u0000\u0000\u0000\u0000\u0000\u0000\u0000\u0000\u0000\u0000\u0000\u0000\u0000\u0000\u0000\u0000\u0000\u0000\u0000\u0000\u0000\u0000\u0000\u0000\u0000\u0000\u0000\u0000\u0000\u0000\u0000\u0000\u0000\u0000\u0000",
        "\u0000\u0000\u0000\u0000\u0000\u0000\u0000\u0000\u0000\u0000\u0000\u0000\u0000\u0000\u0000\u0000\u0000\u0000\u0000\u0000\u0000\u0000\u0000\u0000\u0000\u0000\u0000\u0000\u0000\u0000\u0000\u0000\u0000\u0000\u0000\u0000\u0000\u0000\u0000\u0000\u0000\u0000\u0000\u0000\u0000\u0000\u0000\u0000",
        "\u0000\u0000\u0000\u0000\u0000\u0000\u0000\u0000\u0000\u0000\u0000\u0000\u0000\u0000\u0000\u0000\u0000\u0000\u0000\u0000\u0000\u0000\u0000\u0000\u0000\u0000\u0000\u0000\u0000\u0000\u0000\u0000\u0000\u0000\u0000\u0000\u0000\u0000\u0000\u0000\u0000\u0000\u0000\u0000\u0000\u0000",
        "\u0000\u0000\u0000\u0000\u0000\u0000\u0000\u0000\u0000\u0000\u0000\u0000\u0000\u0000\u0000\u0000\u0000\u0000\u0000\u0000\u0000\u0000\u0000\u0000\u0000\u0000\u0000\u0000\u0000\u0000\u0000\u0000\u0000\u0000\u0000\u0000\u0000\u0000\u0000\u0000\u0000\u0000\u0000\u0000\u0000\u0000",
        "\u0000\u0000\u0000\u0000\u0000\u0000\u0000\u0000\u0000\u0000\u0000\u0000\u0000\u0000\u0000\u0000\u0000\u0000\u0000\u0000\u0000\u0000\u0000\u0000\u0000\u0000\u0000\u0000\u0000\u0000\u0000\u0000\u0000\u0000\u0000\u0000\u0000\u0000\u0000\u0000\u0000\u0000\u0000\u0000\u0000\u0000\u0000\u0000",
        "\u0000\u0000\u0000\u0000\u0000\u0000\u0000\u0000\u0000\u0000\u0000\u0000\u0000\u0000\u0000\u0000\u0000\u0000\u0000\u0000\u0000\u0000\u0000\u0000\u0000\u0000\u0000\u0000\u0000\u0000\u0000\u0000\u0000\u0000\u0000\u0000\u0000\u0000\u0000\u0000\u0000\u0000\u0000\u0000\u0000\u0000\u0000\u0000",
        "\u0000\u0000\u0000\u0000\u0000\u0000\u0000\u0000\u0000\u0000\u0000\u0000\u0000\u0000\u0000\u0000\u0000\u0000\u0000\u0000\u0000\u0000\u0000\u0000\u0000\u0000\u0000\u0000\u0000\u0000\u0000\u0000\u0000\u0000\u0000\u0000\u0000\u0000\u0000\u0000\u0000\u0000\u0000\u0000\u0000\u0000\u0000\u0000",
        "\u0000\u0000\u0000\u0000\u0000\u0000\u0000\u0000\u0000\u0000\u0000\u0000\u0000\u0000\u0000\u0000\u0000\u0000\u0000\u0000\u0000\u0000\u0000\u0000\u0000\u0000\u0000\u0000\u0000\u0000\u0000\u0000\u0000\u0000\u0000\u0000\u0000\u0000\u0000\u0000\u0000\u0000\u0000\u0000\u0000\u0000",
        "\u0000\u0000\u0000\u0000\u0000\u0000\u0000\u0000\u0000\u0000\u0000\u0000\u0000\u0000\u0000\u0000\u0000\u0000\u0000\u0000\u0000\u0000\u0000\u0000\u0000\u0000\u0000\u0000\u0000\u0000\u0000\u0000\u0000\u0000\u0000\u0000\u0000\u0000\u0000\u0000\u0000\u0000\u0000\u0000\u0000\u0000\u0000\u0000",
        "\u0000\u0000\u0000\u0000\u0000\u0000\u0000\u0000\u0000\u0000\u0000\u0000\u0000\u0000\u0000\u0000\u0000\u0000\u0000\u0000\u0000\u0000\u0000\u0000\u0000\u0000\u0000\u0000\u0000\u0000\u0000\u0000\u0000\u0000\u0000\u0000\u0000\u0000\u0000\u0000\u0000\u0000\u0000\u0000\u0000\u0000\u0000\u0000",
        "\u0000\u0000\u0000\u0000\u0000\u0000\u0000\u0000\u0000\u0000\u0000\u0000\u0000\u0000\u0000\u0000\u0000\u0000\u0000\u0000\u0000\u0000\u0000\u0000\u0000\u0000\u0000\u0000\u0000\u0000\u0000\u0000\u0000\u0000\u0000\u0000\u0000\u0000\u0000\u0000\u0000\u0000\u0000\u0000\u0000\u0000\u0000\u0000",
        "\u0000\u0000\u0000\u0000\u0000\u0000\u0000\u0000\u0000\u0000\u0000\u0000\u0000\u0000\u0000\u0000\u0000\u0000\u0000\u0000\u0000\u0000\u0000\u0000\u0000\u0000\u0000\u0000\u0000\u0000\u0000\u0000\u0000\u0000\u0000\u0000\u0000\u0000\u0000\u0000\u0000\u0000\u0000\u0000\u0000\u0000\u0000\u0000",
        "\u0000\u0000\u0000\u0000\u0000\u0000\u0000\u0000\u0000\u0000\u0000\u0000\u0000\u0000\u0000\u0000\u0000\u0000\u0000\u0000\u0000\u0000\u0000\u0000\u0000\u0000\u0000\u0000\u0000\u0000\u0000\u0000\u0000\u0000\u0000\u0000\u0000\u0000\u0000\u0000\u0000\u0000\u0000\u0000\u0000\u0000",
        "\u0000\u0000\u0000\u0000\u0000\u0000\u0000\u0000\u0000\u0000\u0000\u0000\u0000\u0000\u0000\u0000\u0000\u0000\u0000\u0000\u0000\u0000\u0000\u0000\u0000\u0000\u0000\u0000\u0000\u0000\u0000\u0000\u0000\u0000\u0000\u0000\u0000\u0000\u0000\u0000\u0000\u0000\u0000\u0000\u0000\u0000",
        "\u0000\u0000\u0000\u0000\u0000\u0000\u0000\u0000\u0000\u0000\u0000\u0000\u0000\u0000\u0000\u0000\u0000\u0000\u0000\u0000\u0000\u0000\u0000\u0000\u0000\u0000\u0000\u0000\u0000\u0000\u0000\u0000\u0000\u0000\u0000\u0000\u0000\u0000\u0000\u0000\u0000\u0000\u0000\u0000\u0000\u0000\u0000\u0000",
        "\u0000\u0000\u0000\u0000\u0000\u0000\u0000\u0000\u0000\u0000\u0000\u0000\u0000\u0000\u0000\u0000\u0000\u0000\u0000\u0000\u0000\u0000\u0000\u0000\u0000\u0000\u0000\u0000\u0000\u0000\u0000\u0000\u0000\u0000\u0000\u0000\u0000\u0000\u0000\u0000\u0000\u0000\u0000\u0000\u0000\u0000\u0000\u0000",
        "\u0000\u0000\u0000\u0000\u0000\u0000\u0000\u0000\u0000\u0000\u0000\u0000\u0000\u0000\u0000\u0000\u0000\u0000\u0000\u0000\u0000\u0000\u0000\u0000\u0000\u0000\u0000\u0000\u0000\u0000\u0000\u0000\u0000\u0000\u0000\u0000\u0000\u0000\u0000\u0000\u0000\u0000\u0000\u0000\u0000\u0000\u0000\u0000",
        "\u0000\u0000\u0000\u0000\u0000\u0000\u0000\u0000\u0000\u0000\u0000\u0000\u0000\u0000\u0000\u0000\u0000\u0000\u0000\u0000\u0000\u0000\u0000\u0000\u0000\u0000\u0000\u0000\u0000\u0000\u0000\u0000\u0000\u0000\u0000\u0000\u0000\u0000\u0000\u0000\u0000\u0000\u0000\u0000\u0000\u0000",
        "\u0000\u0000\u0000\u0000\u0000\u0000\u0000\u0000\u0000\u0000\u0000\u0000\u0000\u0000\u0000\u0000\u0000\u0000\u0000\u0000\u0000\u0000\u0000\u0000\u0000\u0000\u0000\u0000\u0000\u0000\u0000\u0000\u0000\u0000\u0000\u0000\u0000\u0000\u0000\u0000\u0000\u0000\u0000\u0000\u0000\u0000",
        "\u0000\u0000\u0000\u0000\u0000\u0000\u0000\u0000\u0000\u0000\u0000\u0000\u0000\u0000\u0000\u0000\u0000\u0000\u0000\u0000\u0000\u0000\u0000\u0000\u0000\u0000\u0000\u0000\u0000\u0000\u0000\u0000\u0000\u0000\u0000\u0000\u0000\u0000\u0000\u0000\u0000\u0000\u0000\u0000\u0000\u0000\u0000\u0000",
