{
  "AcquisitionMatrixPE": 110,
  "AcquisitionNumber": 1,
  "AcquisitionTime": "16:24:51.775000",
  "BandwidthPerPixelPhaseEncode": 26.35,
  "BaseResolution": 110,
  "CoilString": "C:HEA;HEP",
  "ConversionSoftware": "dcm2niix",
  "ConversionSoftwareVersion": "v1.0.20190410  GCC6.3.0",
  "DerivedVendorReportedEchoSpacing": 0.000690012,
  "DeviceSerialNumber": "35422",
  "DwellTime": 2.6e-06,
  "EchoTime": 0.03,
  "EffectiveEchoSpacing": 0.000345006,
  "FlipAngle": 85,
  "ImageComments": "Unaliased_MB4_PE4_LB",
  "ImageOrientationPatientDICOM": [0.999776, -0.00449519, -0.0206876, 3.61978e-10, 0.977197, -0.212335],
  "ImageType": [
    "ORIGINAL",
    "PRIMARY",
    "FMRI",
    "NONE",
    "MB",
    "ND",
    "MOSAIC"
],
  "ImagingFrequency": 123.177,
  "InPlanePhaseEncodingDirectionDICOM": "ROW",
  "InstitutionAddress": "kwanakro_599_C4F276_Seoul_KR_ZIP",
  "InstitutionName": "SNUBIC",
  "InstitutionalDepartmentName": "Department",
  "MRAcquisitionType": "2D",
  "MagneticFieldStrength": 3,
  "Manufacturer": "Siemens",
  "ManufacturersModelName": "TrioTim",
  "Modality": "MR",
  "MultibandAccelerationFactor": 4,
  "ParallelReductionFactorInPlane": 2,
  "PartialFourier": 1,
  "PatientPosition": "HFS",
  "PercentPhaseFOV": 100,
  "PhaseEncodingDirection": "i-",
  "PhaseEncodingSteps": 110,
  "PhaseResolution": 1,
  "PixelBandwidth": 1748,
  "ProcedureStepDescription": "SNU_SAVED",
  "ProtocolName": "WMGNG1_MB4_LR_SBRef",
  "PulseSequenceDetails": "%CustomerSeq%_cmrr_mbep2d_bold",
  "ReceiveCoilName": "32Ch_Head",
  "ReconMatrixPE": 110,
  "RefLinesPE": 32,
  "RepetitionTime": 1.5,
  "SAR": 0.126815,
  "ScanOptions": "FS",
  "ScanningSequence": "EP",
  "SequenceName": "epfid2d1_110",
  "SequenceVariant": "SK_SS",
  "SeriesDescription": "WMGNG1_MB4_LR_SBRef",
  "SeriesNumber": 13,
  "ShimSetting": [-4169, -29660, -2031, 558, -80, 806, -56, -147],
  "SliceThickness": 2.3,
  "SliceTiming": [0, 0.6575, 1.315, 0.47, 1.1275, 0.28, 0.94, 0.0925, 0.7525, 1.41, 0.5625, 1.2225, 0.375, 1.035, 0.1875, 0.845, 0, 0.6575, 1.315, 0.47, 1.1275, 0.28, 0.94, 0.0925, 0.7525, 1.41, 0.5625, 1.2225, 0.375, 1.035, 0.1875, 0.845, 0, 0.6575, 1.315, 0.47, 1.1275, 0.28, 0.94, 0.0925, 0.7525, 1.41, 0.5625, 1.2225, 0.375, 1.035, 0.1875, 0.845, 0, 0.6575, 1.315, 0.47, 1.1275, 0.28, 0.94, 0.0925, 0.7525, 1.41, 0.5625, 1.2225, 0.375, 1.035, 0.1875, 0.845],
  "SoftwareVersions": "syngo_MR_B17",
  "SpacingBetweenSlices": 2.3,
  "StationName": "MRC35422",
  "TaskName": "wmgng",
  "TotalReadoutTime": 0.0376057,
  "TxRefAmp": 324.759,
  "dcmmeta_affine": [
    [-2.3267509937286377, 8.424205777401994e-10, -0.04869171604514122, 130.67935180664062],
    [0.010461532510817051, 2.2742040157318115, -0.4882601201534271, -101.70529174804688],
    [-0.0481456033885479, 0.4941605031490326, 2.247049331665039, -83.51126861572266],
    [0.0, 0.0, 0.0, 1.0]
],
  "dcmmeta_reorient_transform": [
    [0.0, -1.0, 0.0, 109.0],
    [1.0, 0.0, 0.0, 0.0],
    [0.0, 0.0, 1.0, 0.0],
    [0.0, 0.0, 0.0, 1.0]
],
  "dcmmeta_shape": [110, 110, 64, 357],
  "dcmmeta_slice_dim": 2,
  "dcmmeta_version": 0.6,
  "global": {
    "const": {
      "AcquisitionMatrix": [0, 110, 110, 0],
      "AngioFlag": "N",
      "BitsAllocated": 16,
      "BitsStored": 12,
      "Columns": 880,
      "EchoNumbers": 1,
      "EchoTime": 30.0,
      "EchoTrainLength": 1,
      "FlipAngle": 85.0,
      "HighBit": 11,
      "ImageOrientationPatient": [0.99977588384645, -0.0044951897892, -0.0206875650527, 3.619776e-10, 0.97719702231764, -0.2123345934452],
      "ImagePositionPatient": [-1026.4785199249, -1017.723748012, 179.14006955644],
      "ImageType": [
        "ORIGINAL",
        "PRIMARY",
        "FMRI",
        "NONE",
        "MB",
        "ND",
        "MOSAIC"
],
      "ImagedNucleus": "1H",
      "ImagingFrequency": 123.177377,
      "InPlanePhaseEncodingDirection": "ROW",
      "MRAcquisitionType": "2D",
      "MagneticFieldStrength": 3.0,
      "Manufacturer": "SIEMENS",
      "ManufacturerModelName": "TrioTim",
      "Modality": "MR",
      "NumberOfAverages": 1.0,
      "NumberOfPhaseEncodingSteps": 110,
      "PercentPhaseFieldOfView": 100.0,
      "PercentSampling": 100.0,
      "PerformedProcedureStepStartTime": "155351.234000",
      "PhotometricInterpretation": "MONOCHROME2",
      "PixelBandwidth": 1748.0,
      "PixelRepresentation": 0,
      "PixelSpacing": [2.3272726535797, 2.3272726535797],
      "ProtocolName": "WMGNG1_MB4_LR_SBRef",
      "ReferencedPerformedProcedureStepSequence": [
        {
          "ReferencedSOPClassUID": "1.2.840.10008.3.1.2.3.3",
          "ReferencedSOPInstanceUID": "1.3.12.2.1107.5.2.32.35422.30000020011701063926500000003"}
],
      "RepetitionTime": 1500.0,
      "Rows": 880,
      "SAR": 0.1268147402255,
      "SamplesPerPixel": 1,
      "ScanOptions": "FS",
      "ScanningSequence": "EP",
      "SequenceName": "epfid2d1_110",
      "SequenceVariant": [
        "SK",
        "SS"
],
      "SeriesDescription": "WMGNG1_MB4_LR_SBRef",
      "SeriesNumber": 13,
      "SeriesTime": "163248.718000",
      "SliceLocation": -62.764487132915,
      "SliceThickness": 2.2999999523163,
      "SmallestImagePixelValue": 0,
      "SoftwareVersions": "syngo MR B17",
      "SpacingBetweenSlices": 2.2999999886867,
      "SpecificCharacterSet": "ISO_IR 100",
      "StudyID": "1",
      "StudyTime": "155351.187000",
      "TransmitCoilName": "Body",
      "VariableFlipAngleFlag": "N",
      "WindowCenterWidthExplanation": "Algo1",
      "dBdt": 0.0},
    "slices": {}
  },
  "time": {
    "samples": {
      "AcquisitionNumber": [1, 2, 3, 4, 5, 6, 7, 8, 9, 10, 11, 12, 13, 14, 15, 16, 17, 18, 19, 20, 21, 22, 23, 24, 25, 26, 27, 28, 29, 30, 31, 32, 33, 34, 35, 36, 37, 38, 39, 40, 41, 42, 43, 44, 45, 46, 47, 48, 49, 50, 51, 52, 53, 54, 55, 56, 57, 58, 59, 60, 61, 62, 63, 64, 65, 66, 67, 68, 69, 70, 71, 72, 73, 74, 75, 76, 77, 78, 79, 80, 81, 82, 83, 84, 85, 86, 87, 88, 89, 90, 91, 92, 93, 94, 95, 96, 97, 98, 99, 100, 101, 102, 103, 104, 105, 106, 107, 108, 109, 110, 111, 112, 113, 114, 115, 116, 117, 118, 119, 120, 121, 122, 123, 124, 125, 126, 127, 128, 129, 130, 131, 132, 133, 134, 135, 136, 137, 138, 139, 140, 141, 142, 143, 144, 145, 146, 147, 148, 149, 150, 151, 152, 153, 154, 155, 156, 157, 158, 159, 160, 161, 162, 163, 164, 165, 166, 167, 168, 169, 170, 171, 172, 173, 174, 175, 176, 177, 178, 179, 180, 181, 182, 183, 184, 185, 186, 187, 188, 189, 190, 191, 192, 193, 194, 195, 196, 197, 198, 199, 200, 201, 202, 203, 204, 205, 206, 207, 208, 209, 210, 211, 212, 213, 214, 215, 216, 217, 218, 219, 220, 221, 222, 223, 224, 225, 226, 227, 228, 229, 230, 231, 232, 233, 234, 235, 236, 237, 238, 239, 240, 241, 242, 243, 244, 245, 246, 247, 248, 249, 250, 251, 252, 253, 254, 255, 256, 257, 258, 259, 260, 261, 262, 263, 264, 265, 266, 267, 268, 269, 270, 271, 272, 273, 274, 275, 276, 277, 278, 279, 280, 281, 282, 283, 284, 285, 286, 287, 288, 289, 290, 291, 292, 293, 294, 295, 296, 297, 298, 299, 300, 301, 302, 303, 304, 305, 306, 307, 308, 309, 310, 311, 312, 313, 314, 315, 316, 317, 318, 319, 320, 321, 322, 323, 324, 325, 326, 327, 328, 329, 330, 331, 332, 333, 334, 335, 336, 337, 338, 339, 340, 341, 342, 343, 344, 345, 346, 347, 348, 349, 350, 351, 352, 353, 354, 355, 356, 357],
      "AcquisitionTime": ["162451.775000", "162453.280000", "162454.785000", "162456.292500", "162457.797500", "162459.305000", "162500.810000", "162502.315000", "162503.822500", "162505.327500", "162506.835000", "162508.340000", "162509.845000", "162511.352500", "162512.857500", "162514.365000", "162515.870000", "162517.375000", "162518.882500", "162520.387500", "162521.895000", "162523.400000", "162524.907500", "162526.412500", "162527.917500", "162529.425000", "162530.930000", "162532.437500", "162533.942500", "162535.447500", "162536.955000", "162538.460000", "162539.967500", "162541.472500", "162542.977500", "162544.485000", "162545.990000", "162547.497500", "162549.002500", "162550.510000", "162552.015000", "162553.520000", "162555.027500", "162556.532500", "162558.040000", "162559.545000", "162601.050000", "162602.557500", "162604.062500", "162605.570000", "162607.075000", "162608.580000", "162610.087500", "162611.592500", "162613.100000", "162614.605000", "162616.110000", "162617.617500", "162619.122500", "162620.630000", "162622.135000", "162623.642500", "162625.147500", "162626.652500", "162628.160000", "162629.665000", "162631.172500", "162632.677500", "162634.182500", "162635.690000", "162637.195000", "162638.702500", "162640.207500", "162641.712500", "162643.220000", "162644.725000", "162646.232500", "162647.737500", "162649.242500", "162650.750000", "162652.255000", "162653.762500", "162655.267500", "162656.775000", "162658.280000", "162659.785000", "162701.292500", "162702.797500", "162704.305000", "162705.810000", "162707.315000", "162708.822500", "162710.327500", "162711.835000", "162713.340000", "162714.845000", "162716.352500", "162717.857500", "162719.365000", "162720.870000", "162722.375000", "162723.882500", "162725.387500", "162726.895000", "162728.400000", "162729.907500", "162731.412500", "162732.917500", "162734.425000", "162735.930000", "162737.437500", "162738.942500", "162740.447500", "162741.955000", "162743.460000", "162744.967500", "162746.472500", "162747.977500", "162749.485000", "162750.990000", "162752.497500", "162754.002500", "162755.510000", "162757.015000", "162758.520000", "162800.027500", "162801.532500", "162803.040000", "162804.545000", "162806.050000", "162807.557500", "162809.062500", "162810.570000", "162812.075000", "162813.580000", "162815.087500", "162816.592500", "162818.100000", "162819.605000", "162821.110000", "162822.617500", "162824.122500", "162825.630000", "162827.135000", "162828.642500", "162830.147500", "162831.652500", "162833.160000", "162834.665000", "162836.172500", "162837.677500", "162839.182500", "162840.690000", "162842.195000", "162843.702500", "162845.207500", "162846.712500", "162848.220000", "162849.725000", "162851.232500", "162852.737500", "162854.242500", "162855.750000", "162857.255000", "162858.762500", "162900.267500", "162901.775000", "162903.280000", "162904.785000", "162906.292500", "162907.797500", "162909.305000", "162910.810000", "162912.315000", "162913.822500", "162915.327500", "162916.835000", "162918.340000", "162919.845000", "162921.352500", "162922.857500", "162924.365000", "162925.870000", "162927.375000", "162928.882500", "162930.387500", "162931.895000", "162933.400000", "162934.907500", "162936.412500", "162937.917500", "162939.425000", "162940.930000", "162942.437500", "162943.942500", "162945.447500", "162946.955000", "162948.460000", "162949.967500", "162951.472500", "162952.977500", "162954.485000", "162955.990000", "162957.497500", "162959.002500", "163000.510000", "163002.015000", "163003.520000", "163005.027500", "163006.532500", "163008.040000", "163009.545000", "163011.050000", "163012.557500", "163014.062500", "163015.570000", "163017.075000", "163018.580000", "163020.087500", "163021.592500", "163023.100000", "163024.605000", "163026.110000", "163027.617500", "163029.122500", "163030.630000", "163032.135000", "163033.642500", "163035.147500", "163036.652500", "163038.160000", "163039.665000", "163041.172500", "163042.677500", "163044.182500", "163045.690000", "163047.195000", "163048.702500", "163050.207500", "163051.712500", "163053.220000", "163054.725000", "163056.232500", "163057.737500", "163059.242500", "163100.750000", "163102.255000", "163103.762500", "163105.267500", "163106.775000", "163108.280000", "163109.785000", "163111.292500", "163112.797500", "163114.305000", "163115.810000", "163117.315000", "163118.822500", "163120.327500", "163121.835000", "163123.340000", "163124.845000", "163126.352500", "163127.857500", "163129.365000", "163130.870000", "163132.375000", "163133.882500", "163135.387500", "163136.895000", "163138.400000", "163139.907500", "163141.412500", "163142.917500", "163144.425000", "163145.930000", "163147.437500", "163148.942500", "163150.447500", "163151.955000", "163153.460000", "163154.967500", "163156.472500", "163157.977500", "163159.485000", "163200.990000", "163202.497500", "163204.002500", "163205.510000", "163207.015000", "163208.520000", "163210.027500", "163211.532500", "163213.040000", "163214.545000", "163216.050000", "163217.557500", "163219.062500", "163220.570000", "163222.075000", "163223.580000", "163225.087500", "163226.592500", "163228.100000", "163229.605000", "163231.110000", "163232.617500", "163234.122500", "163235.630000", "163237.135000", "163238.642500", "163240.147500", "163241.652500", "163243.160000", "163244.665000", "163246.172500", "163247.677500", "163249.182500", "163250.690000", "163252.195000", "163253.702500", "163255.207500", "163256.712500", "163258.220000", "163259.725000", "163301.232500", "163302.737500", "163304.242500", "163305.750000", "163307.255000", "163308.762500", "163310.267500", "163311.775000", "163313.280000", "163314.785000", "163316.292500", "163317.797500", "163319.305000", "163320.810000", "163322.315000", "163323.822500", "163325.327500", "163326.835000", "163328.340000", "163329.845000", "163331.352500", "163332.857500", "163334.365000", "163335.870000", "163337.375000", "163338.882500", "163340.387500", "163341.895000", "163343.400000", "163344.907500", "163346.412500", "163347.917500"],
      "ContentTime": ["163248.718000", "163248.734000", "163248.734000", "163248.734000", "163248.734000", "163248.734000", "163248.750000", "163248.750000", "163248.750000", "163248.750000", "163248.750000", "163248.750000", "163248.750000", "163248.750000", "163248.765000", "163248.765000", "163248.765000", "163248.765000", "163248.765000", "163248.781000", "163248.781000", "163248.781000", "163248.781000", "163248.781000", "163248.781000", "163328.718000", "163328.718000", "163328.734000", "163328.734000", "163328.734000", "163328.734000", "163328.734000", "163328.734000", "163328.734000", "163328.734000", "163328.750000", "163328.750000", "163328.750000", "163328.750000", "163328.750000", "163328.750000", "163328.750000", "163428.718000", "163428.718000", "163428.718000", "163428.734000", "163428.734000", "163428.734000", "163428.734000", "163428.734000", "163428.734000", "163428.734000", "163428.750000", "163428.750000", "163428.750000", "163428.750000", "163428.750000", "163428.750000", "163428.750000", "163428.750000", "163428.750000", "163428.765000", "163428.765000", "163428.765000", "163428.765000", "163428.765000", "163428.765000", "163428.765000", "163528.718000", "163528.718000", "163528.718000", "163528.718000", "163528.734000", "163528.734000", "163528.734000", "163528.734000", "163528.734000", "163528.734000", "163528.750000", "163528.750000", "163528.750000", "163528.750000", "163528.750000", "163528.750000", "163528.750000", "163528.750000", "163528.750000", "163528.765000", "163528.765000", "163528.765000", "163528.765000", "163528.765000", "163528.765000", "163528.765000", "163628.718000", "163628.718000", "163628.718000", "163628.734000", "163628.734000", "163628.734000", "163628.734000", "163628.734000", "163628.750000", "163628.750000", "163628.750000", "163628.750000", "163628.750000", "163628.750000", "163628.750000", "163628.750000", "163628.750000", "163628.765000", "163628.765000", "163628.765000", "163628.781000", "163628.781000", "163628.781000", "163628.781000", "163628.781000", "163628.781000", "163728.718000", "163728.718000", "163728.718000", "163728.718000", "163728.734000", "163728.734000", "163728.734000", "163728.734000", "163728.734000", "163728.734000", "163728.734000", "163728.734000", "163728.734000", "163728.750000", "163728.750000", "163728.750000", "163728.750000", "163728.750000", "163728.750000", "163728.750000", "163728.765000", "163728.765000", "163728.765000", "163728.765000", "163728.765000", "163728.765000", "163828.718000", "163828.718000", "163828.718000", "163828.718000", "163828.734000", "163828.734000", "163828.734000", "163828.734000", "163828.734000", "163828.734000", "163828.734000", "163828.734000", "163828.734000", "163828.750000", "163828.750000", "163828.750000", "163828.750000", "163828.750000", "163828.750000", "163828.750000", "163828.750000", "163828.765000", "163828.765000", "163828.765000", "163828.765000", "163828.765000", "163928.718000", "163928.718000", "163928.718000", "163928.734000", "163928.734000", "163928.734000", "163928.734000", "163928.734000", "163928.734000", "163928.734000", "163928.750000", "163928.750000", "163928.750000", "163928.750000", "163928.750000", "163928.750000", "163928.750000", "163928.750000", "163928.765000", "163928.765000", "163928.765000", "163928.765000", "163928.765000", "163928.765000", "163928.765000", "163928.765000", "164028.718000", "164028.718000", "164028.718000", "164028.718000", "164028.734000", "164028.734000", "164028.734000", "164028.734000", "164028.734000", "164028.734000", "164028.750000", "164028.750000", "164028.750000", "164028.750000", "164028.765000", "164028.765000", "164028.765000", "164028.765000", "164028.765000", "164028.765000", "164028.765000", "164028.781000", "164028.781000", "164028.781000", "164028.781000", "164028.781000", "164128.718000", "164128.718000", "164128.718000", "164128.718000", "164128.734000", "164128.734000", "164128.734000", "164128.734000", "164128.734000", "164128.734000", "164128.734000", "164128.734000", "164128.734000", "164128.750000", "164128.750000", "164128.750000", "164128.750000", "164128.750000", "164128.750000", "164128.750000", "164128.750000", "164128.765000", "164128.765000", "164128.765000", "164128.765000", "164128.765000", "164228.718000", "164228.718000", "164228.718000", "164228.718000", "164228.734000", "164228.734000", "164228.734000", "164228.734000", "164228.734000", "164228.734000", "164228.734000", "164228.734000", "164228.734000", "164228.750000", "164228.750000", "164228.750000", "164228.750000", "164228.750000", "164228.750000", "164228.750000", "164228.750000", "164228.750000", "164228.765000", "164228.765000", "164228.765000", "164228.765000", "164308.718000", "164308.718000", "164308.718000", "164308.718000", "164308.734000", "164308.734000", "164308.734000", "164308.734000", "164308.734000", "164308.734000", "164308.734000", "164308.734000", "164308.734000", "164308.750000", "164308.750000", "164308.750000", "164308.750000", "164408.718000", "164408.734000", "164408.734000", "164408.734000", "164408.734000", "164408.734000", "164408.734000", "164408.734000", "164408.750000", "164408.750000", "164408.750000", "164408.750000", "164408.750000", "164408.750000", "164408.765000", "164408.765000", "164408.765000", "164408.765000", "164408.765000", "164408.765000", "164408.765000", "164408.765000", "164408.781000", "164408.781000", "164408.781000", "164408.781000", "164508.718000", "164508.718000", "164508.718000", "164508.718000", "164508.734000", "164508.734000", "164508.734000", "164508.734000", "164508.734000", "164508.734000", "164508.734000", "164508.734000", "164508.734000", "164508.750000", "164508.750000", "164508.750000", "164508.750000", "164508.750000", "164508.750000", "164508.750000", "164508.750000", "164508.765000", "164508.765000", "164508.765000", "164508.765000", "164508.765000", "164535.015000", "164535.015000", "164535.031000", "164535.031000", "164535.031000", "164535.031000", "164535.031000", "164535.046000", "164535.046000", "164535.046000", "164535.046000", "164535.046000"],
      "DataSetTrailingPadding": [
        "\u0000\u0000\u0000\u0000\u0000\u0000\u0000\u0000\u0000\u0000\u0000\u0000\u0000\u0000\u0000\u0000\u0000\u0000\u0000\u0000\u0000\u0000\u0000\u0000\u0000\u0000\u0000\u0000\u0000\u0000\u0000\u0000\u0000\u0000\u0000\u0000\u0000\u0000\u0000\u0000\u0000\u0000\u0000\u0000\u0000\u0000\u0000\u0000\u0000\u0000\u0000\u0000\u0000\u0000\u0000\u0000\u0000\u0000\u0000\u0000\u0000\u0000\u0000\u0000\u0000\u0000\u0000\u0000\u0000\u0000\u0000\u0000\u0000\u0000\u0000\u0000\u0000\u0000\u0000\u0000\u0000\u0000\u0000\u0000\u0000\u0000\u0000\u0000\u0000\u0000\u0000\u0000\u0000\u0000\u0000\u0000\u0000\u0000\u0000\u0000\u0000\u0000\u0000\u0000\u0000\u0000\u0000\u0000\u0000\u0000\u0000\u0000\u0000\u0000\u0000\u0000\u0000\u0000\u0000\u0000\u0000\u0000\u0000\u0000\u0000\u0000\u0000\u0000\u0000\u0000\u0000\u0000\u0000\u0000\u0000\u0000\u0000\u0000\u0000\u0000\u0000\u0000\u0000\u0000\u0000\u0000\u0000\u0000\u0000\u0000",
        "\u0000\u0000\u0000\u0000\u0000\u0000\u0000\u0000\u0000\u0000\u0000\u0000\u0000\u0000\u0000\u0000\u0000\u0000\u0000\u0000\u0000\u0000\u0000\u0000\u0000\u0000\u0000\u0000\u0000\u0000\u0000\u0000\u0000\u0000\u0000\u0000\u0000\u0000\u0000\u0000\u0000\u0000\u0000\u0000\u0000\u0000\u0000\u0000\u0000\u0000\u0000\u0000\u0000\u0000\u0000\u0000\u0000\u0000\u0000\u0000\u0000\u0000\u0000\u0000\u0000\u0000\u0000\u0000\u0000\u0000\u0000\u0000\u0000\u0000\u0000\u0000\u0000\u0000\u0000\u0000\u0000\u0000\u0000\u0000\u0000\u0000\u0000\u0000\u0000\u0000\u0000\u0000\u0000\u0000\u0000\u0000\u0000\u0000\u0000\u0000\u0000\u0000\u0000\u0000\u0000\u0000\u0000\u0000\u0000\u0000\u0000\u0000\u0000\u0000\u0000\u0000\u0000\u0000\u0000\u0000\u0000\u0000\u0000\u0000\u0000\u0000\u0000\u0000\u0000\u0000\u0000\u0000\u0000\u0000\u0000\u0000\u0000\u0000\u0000\u0000\u0000\u0000\u0000\u0000\u0000\u0000",
        "\u0000\u0000\u0000\u0000\u0000\u0000\u0000\u0000\u0000\u0000\u0000\u0000\u0000\u0000\u0000\u0000\u0000\u0000\u0000\u0000\u0000\u0000\u0000\u0000\u0000\u0000\u0000\u0000\u0000\u0000\u0000\u0000\u0000\u0000\u0000\u0000\u0000\u0000\u0000\u0000\u0000\u0000\u0000\u0000\u0000\u0000\u0000\u0000\u0000\u0000\u0000\u0000\u0000\u0000\u0000\u0000\u0000\u0000\u0000\u0000\u0000\u0000\u0000\u0000\u0000\u0000\u0000\u0000\u0000\u0000\u0000\u0000\u0000\u0000\u0000\u0000\u0000\u0000\u0000\u0000\u0000\u0000\u0000\u0000\u0000\u0000\u0000\u0000\u0000\u0000\u0000\u0000\u0000\u0000\u0000\u0000\u0000\u0000\u0000\u0000\u0000\u0000\u0000\u0000\u0000\u0000\u0000\u0000\u0000\u0000\u0000\u0000\u0000\u0000\u0000\u0000\u0000\u0000\u0000\u0000\u0000\u0000\u0000\u0000\u0000\u0000\u0000\u0000\u0000\u0000\u0000\u0000\u0000\u0000\u0000\u0000\u0000\u0000\u0000\u0000\u0000\u0000\u0000\u0000\u0000\u0000",
        "\u0000\u0000\u0000\u0000\u0000\u0000\u0000\u0000\u0000\u0000\u0000\u0000\u0000\u0000\u0000\u0000\u0000\u0000\u0000\u0000\u0000\u0000\u0000\u0000\u0000\u0000\u0000\u0000\u0000\u0000\u0000\u0000\u0000\u0000\u0000\u0000\u0000\u0000\u0000\u0000\u0000\u0000\u0000\u0000\u0000\u0000\u0000\u0000\u0000\u0000\u0000\u0000\u0000\u0000\u0000\u0000\u0000\u0000\u0000\u0000\u0000\u0000\u0000\u0000\u0000\u0000\u0000\u0000\u0000\u0000\u0000\u0000\u0000\u0000\u0000\u0000\u0000\u0000\u0000\u0000\u0000\u0000\u0000\u0000\u0000\u0000\u0000\u0000\u0000\u0000\u0000\u0000\u0000\u0000\u0000\u0000\u0000\u0000\u0000\u0000\u0000\u0000\u0000\u0000\u0000\u0000\u0000\u0000\u0000\u0000\u0000\u0000\u0000\u0000\u0000\u0000\u0000\u0000\u0000\u0000\u0000\u0000\u0000\u0000\u0000\u0000\u0000\u0000\u0000\u0000\u0000\u0000\u0000\u0000\u0000\u0000\u0000\u0000\u0000\u0000\u0000\u0000\u0000\u0000\u0000\u0000",
        "\u0000\u0000\u0000\u0000\u0000\u0000\u0000\u0000\u0000\u0000\u0000\u0000\u0000\u0000\u0000\u0000\u0000\u0000\u0000\u0000\u0000\u0000\u0000\u0000\u0000\u0000\u0000\u0000\u0000\u0000\u0000\u0000\u0000\u0000\u0000\u0000\u0000\u0000\u0000\u0000\u0000\u0000\u0000\u0000\u0000\u0000\u0000\u0000\u0000\u0000\u0000\u0000\u0000\u0000\u0000\u0000\u0000\u0000\u0000\u0000\u0000\u0000\u0000\u0000\u0000\u0000\u0000\u0000\u0000\u0000\u0000\u0000\u0000\u0000\u0000\u0000\u0000\u0000\u0000\u0000\u0000\u0000\u0000\u0000\u0000\u0000\u0000\u0000\u0000\u0000\u0000\u0000\u0000\u0000\u0000\u0000\u0000\u0000\u0000\u0000\u0000\u0000\u0000\u0000\u0000\u0000\u0000\u0000\u0000\u0000\u0000\u0000\u0000\u0000\u0000\u0000\u0000\u0000\u0000\u0000\u0000\u0000\u0000\u0000\u0000\u0000\u0000\u0000\u0000\u0000\u0000\u0000\u0000\u0000\u0000\u0000\u0000\u0000\u0000\u0000\u0000\u0000\u0000\u0000\u0000\u0000\u0000\u0000",
        "\u0000\u0000\u0000\u0000\u0000\u0000\u0000\u0000\u0000\u0000\u0000\u0000\u0000\u0000\u0000\u0000\u0000\u0000\u0000\u0000\u0000\u0000\u0000\u0000\u0000\u0000\u0000\u0000\u0000\u0000\u0000\u0000\u0000\u0000\u0000\u0000\u0000\u0000\u0000\u0000\u0000\u0000\u0000\u0000\u0000\u0000\u0000\u0000\u0000\u0000\u0000\u0000\u0000\u0000\u0000\u0000\u0000\u0000\u0000\u0000\u0000\u0000\u0000\u0000\u0000\u0000\u0000\u0000\u0000\u0000\u0000\u0000\u0000\u0000\u0000\u0000\u0000\u0000\u0000\u0000\u0000\u0000\u0000\u0000\u0000\u0000\u0000\u0000\u0000\u0000\u0000\u0000\u0000\u0000\u0000\u0000\u0000\u0000\u0000\u0000\u0000\u0000\u0000\u0000\u0000\u0000\u0000\u0000\u0000\u0000\u0000\u0000\u0000\u0000\u0000\u0000\u0000\u0000\u0000\u0000\u0000\u0000\u0000\u0000\u0000\u0000\u0000\u0000\u0000\u0000\u0000\u0000\u0000\u0000\u0000\u0000\u0000\u0000\u0000\u0000\u0000\u0000\u0000\u0000\u0000\u0000\u0000\u0000",
        "\u0000\u0000\u0000\u0000\u0000\u0000\u0000\u0000\u0000\u0000\u0000\u0000\u0000\u0000\u0000\u0000\u0000\u0000\u0000\u0000\u0000\u0000\u0000\u0000\u0000\u0000\u0000\u0000\u0000\u0000\u0000\u0000\u0000\u0000\u0000\u0000\u0000\u0000\u0000\u0000\u0000\u0000\u0000\u0000\u0000\u0000\u0000\u0000\u0000\u0000\u0000\u0000\u0000\u0000\u0000\u0000\u0000\u0000\u0000\u0000\u0000\u0000\u0000\u0000\u0000\u0000\u0000\u0000\u0000\u0000\u0000\u0000\u0000\u0000\u0000\u0000\u0000\u0000\u0000\u0000\u0000\u0000\u0000\u0000\u0000\u0000\u0000\u0000\u0000\u0000\u0000\u0000\u0000\u0000\u0000\u0000\u0000\u0000\u0000\u0000\u0000\u0000\u0000\u0000\u0000\u0000\u0000\u0000\u0000\u0000\u0000\u0000\u0000\u0000\u0000\u0000\u0000\u0000\u0000\u0000\u0000\u0000\u0000\u0000\u0000\u0000\u0000\u0000\u0000\u0000\u0000\u0000\u0000\u0000\u0000\u0000\u0000\u0000\u0000\u0000\u0000\u0000\u0000\u0000\u0000\u0000",
        "\u0000\u0000\u0000\u0000\u0000\u0000\u0000\u0000\u0000\u0000\u0000\u0000\u0000\u0000\u0000\u0000\u0000\u0000\u0000\u0000\u0000\u0000\u0000\u0000\u0000\u0000\u0000\u0000\u0000\u0000\u0000\u0000\u0000\u0000\u0000\u0000\u0000\u0000\u0000\u0000\u0000\u0000\u0000\u0000\u0000\u0000\u0000\u0000\u0000\u0000\u0000\u0000\u0000\u0000\u0000\u0000\u0000\u0000\u0000\u0000\u0000\u0000\u0000\u0000\u0000\u0000\u0000\u0000\u0000\u0000\u0000\u0000\u0000\u0000\u0000\u0000\u0000\u0000\u0000\u0000\u0000\u0000\u0000\u0000\u0000\u0000\u0000\u0000\u0000\u0000\u0000\u0000\u0000\u0000\u0000\u0000\u0000\u0000\u0000\u0000\u0000\u0000\u0000\u0000\u0000\u0000\u0000\u0000\u0000\u0000\u0000\u0000\u0000\u0000\u0000\u0000\u0000\u0000\u0000\u0000\u0000\u0000\u0000\u0000\u0000\u0000\u0000\u0000\u0000\u0000\u0000\u0000\u0000\u0000\u0000\u0000\u0000\u0000\u0000\u0000\u0000\u0000\u0000\u0000\u0000\u0000",
        "\u0000\u0000\u0000\u0000\u0000\u0000\u0000\u0000\u0000\u0000\u0000\u0000\u0000\u0000\u0000\u0000\u0000\u0000\u0000\u0000\u0000\u0000\u0000\u0000\u0000\u0000\u0000\u0000\u0000\u0000\u0000\u0000\u0000\u0000\u0000\u0000\u0000\u0000\u0000\u0000\u0000\u0000\u0000\u0000\u0000\u0000\u0000\u0000\u0000\u0000\u0000\u0000\u0000\u0000\u0000\u0000\u0000\u0000\u0000\u0000\u0000\u0000\u0000\u0000\u0000\u0000\u0000\u0000\u0000\u0000\u0000\u0000\u0000\u0000\u0000\u0000\u0000\u0000\u0000\u0000\u0000\u0000\u0000\u0000\u0000\u0000\u0000\u0000\u0000\u0000\u0000\u0000\u0000\u0000\u0000\u0000\u0000\u0000\u0000\u0000\u0000\u0000\u0000\u0000\u0000\u0000\u0000\u0000\u0000\u0000\u0000\u0000\u0000\u0000\u0000\u0000\u0000\u0000\u0000\u0000\u0000\u0000\u0000\u0000\u0000\u0000\u0000\u0000\u0000\u0000\u0000\u0000\u0000\u0000\u0000\u0000\u0000\u0000\u0000\u0000\u0000\u0000\u0000\u0000\u0000\u0000",
        "\u0000\u0000\u0000\u0000\u0000\u0000\u0000\u0000\u0000\u0000\u0000\u0000\u0000\u0000\u0000\u0000\u0000\u0000\u0000\u0000\u0000\u0000\u0000\u0000\u0000\u0000\u0000\u0000\u0000\u0000\u0000\u0000\u0000\u0000\u0000\u0000\u0000\u0000\u0000\u0000\u0000\u0000\u0000\u0000\u0000\u0000\u0000\u0000\u0000\u0000\u0000\u0000\u0000\u0000\u0000\u0000\u0000\u0000\u0000\u0000\u0000\u0000\u0000\u0000\u0000\u0000\u0000\u0000\u0000\u0000\u0000\u0000\u0000\u0000\u0000\u0000\u0000\u0000\u0000\u0000\u0000\u0000\u0000\u0000\u0000\u0000\u0000\u0000\u0000\u0000\u0000\u0000\u0000\u0000\u0000\u0000\u0000\u0000\u0000\u0000\u0000\u0000\u0000\u0000\u0000\u0000\u0000\u0000\u0000\u0000\u0000\u0000\u0000\u0000\u0000\u0000\u0000\u0000\u0000\u0000\u0000\u0000\u0000\u0000\u0000\u0000\u0000\u0000\u0000\u0000\u0000\u0000\u0000\u0000\u0000\u0000\u0000\u0000\u0000\u0000\u0000\u0000\u0000\u0000\u0000\u0000\u0000\u0000",
        "\u0000\u0000\u0000\u0000\u0000\u0000\u0000\u0000\u0000\u0000\u0000\u0000\u0000\u0000\u0000\u0000\u0000\u0000\u0000\u0000\u0000\u0000\u0000\u0000\u0000\u0000\u0000\u0000\u0000\u0000\u0000\u0000\u0000\u0000\u0000\u0000\u0000\u0000\u0000\u0000\u0000\u0000\u0000\u0000\u0000\u0000\u0000\u0000\u0000\u0000\u0000\u0000\u0000\u0000\u0000\u0000\u0000\u0000\u0000\u0000\u0000\u0000\u0000\u0000\u0000\u0000\u0000\u0000\u0000\u0000\u0000\u0000\u0000\u0000\u0000\u0000\u0000\u0000\u0000\u0000\u0000\u0000\u0000\u0000\u0000\u0000\u0000\u0000\u0000\u0000\u0000\u0000\u0000\u0000\u0000\u0000\u0000\u0000\u0000\u0000\u0000\u0000\u0000\u0000\u0000\u0000\u0000\u0000\u0000\u0000\u0000\u0000\u0000\u0000\u0000\u0000\u0000\u0000\u0000\u0000\u0000\u0000\u0000\u0000\u0000\u0000\u0000\u0000\u0000\u0000\u0000\u0000\u0000\u0000\u0000\u0000\u0000\u0000\u0000\u0000\u0000\u0000\u0000\u0000\u0000\u0000\u0000\u0000",
