{
  "AcquisitionMatrixPE": 110,
  "AcquisitionNumber": 1,
  "AcquisitionTime": "10:36:22.182500",
  "BandwidthPerPixelPhaseEncode": 26.35,
  "BaseResolution": 110,
  "CoilString": "C:HEA;HEP",
  "ConversionSoftware": "dcm2niix",
  "ConversionSoftwareVersion": "v1.0.20190410  GCC6.3.0",
  "DerivedVendorReportedEchoSpacing": 0.000690012,
  "DeviceSerialNumber": "35422",
  "DwellTime": 2.6e-06,
  "EchoTime": 0.03,
  "EffectiveEchoSpacing": 0.000345006,
  "FlipAngle": 85,
  "ImageComments": "Unaliased_MB4_PE4_LB",
  "ImageOrientationPatientDICOM": [0.999782, 0.00167451, 0.0208077, 1.87642e-10, 0.996777, -0.0802164],
  "ImageType": [
    "ORIGINAL",
    "PRIMARY",
    "FMRI",
    "NONE",
    "MB",
    "ND",
    "MOSAIC"
],
  "ImagingFrequency": 123.177,
  "InPlanePhaseEncodingDirectionDICOM": "ROW",
  "InstitutionAddress": "kwanakro_599_C6F879_Seoul_KR_ZIP",
  "InstitutionName": "SNUBIC",
  "InstitutionalDepartmentName": "Department",
  "MRAcquisitionType": "2D",
  "MagneticFieldStrength": 3,
  "Manufacturer": "Siemens",
  "ManufacturersModelName": "TrioTim",
  "Modality": "MR",
  "MultibandAccelerationFactor": 4,
  "ParallelReductionFactorInPlane": 2,
  "PartialFourier": 1,
  "PatientPosition": "HFS",
  "PercentPhaseFOV": 100,
  "PhaseEncodingDirection": "i-",
  "PhaseEncodingSteps": 110,
  "PhaseResolution": 1,
  "PixelBandwidth": 1748,
  "ProcedureStepDescription": "SNU_SAVED",
  "ProtocolName": "WMGNG1_MB4_LR_SBRef",
  "PulseSequenceDetails": "%CustomerSeq%_cmrr_mbep2d_bold",
  "ReceiveCoilName": "32Ch_Head",
  "ReconMatrixPE": 110,
  "RefLinesPE": 32,
  "RepetitionTime": 1.5,
  "SAR": 0.149295,
  "ScanOptions": "FS",
  "ScanningSequence": "EP",
  "SequenceName": "epfid2d1_110",
  "SequenceVariant": "SK_SS",
  "SeriesDescription": "WMGNG1_MB4_LR_SBRef",
  "SeriesNumber": 15,
  "ShimSetting": [-4158, -29753, -2040, 749, 2, 462, -256, -34],
  "SliceThickness": 2.3,
  "SliceTiming": [0, 0.6575, 1.3175, 0.47, 1.1275, 0.2825, 0.94, 0.0925, 0.7525, 1.41, 0.5625, 1.2225, 0.375, 1.035, 0.1875, 0.845, 0, 0.6575, 1.3175, 0.47, 1.1275, 0.2825, 0.94, 0.0925, 0.7525, 1.41, 0.5625, 1.2225, 0.375, 1.035, 0.1875, 0.845, 0, 0.6575, 1.3175, 0.47, 1.1275, 0.2825, 0.94, 0.0925, 0.7525, 1.41, 0.5625, 1.2225, 0.375, 1.035, 0.1875, 0.845, 0, 0.6575, 1.3175, 0.47, 1.1275, 0.2825, 0.94, 0.0925, 0.7525, 1.41, 0.5625, 1.2225, 0.375, 1.035, 0.1875, 0.845],
  "SoftwareVersions": "syngo_MR_B17",
  "SpacingBetweenSlices": 2.3,
  "StationName": "MRC35422",
  "TaskName": "wmgng",
  "TotalReadoutTime": 0.0376057,
  "TxRefAmp": 338.422,
  "dcmmeta_affine": [
    [-2.326765537261963, 4.3669315386019036e-10, 0.04801240935921669, 127.92877197265625],
    [-0.0038970510940998793, 2.319772958755493, -0.18445752561092377, -102.19410705566406],
    [0.04842517152428627, 0.1866854429244995, 2.292088747024536, -58.79072952270508],
    [0.0, 0.0, 0.0, 1.0]
],
  "dcmmeta_reorient_transform": [
    [0.0, -1.0, 0.0, 109.0],
    [1.0, 0.0, 0.0, 0.0],
    [0.0, 0.0, 1.0, 0.0],
    [0.0, 0.0, 0.0, 1.0]
],
  "dcmmeta_shape": [110, 110, 64, 357],
  "dcmmeta_slice_dim": 2,
  "dcmmeta_version": 0.6,
  "global": {
    "const": {
      "AcquisitionMatrix": [0, 110, 110, 0],
      "AngioFlag": "N",
      "BitsAllocated": 16,
      "BitsStored": 12,
      "Columns": 880,
      "EchoNumbers": 1,
      "EchoTime": 30.0,
      "EchoTrainLength": 1,
      "FlipAngle": 85.0,
      "HighBit": 11,
      "ImageOrientationPatient": [0.99978209425731, 0.00167451416537, 0.02080769100047, 1.876416e-10, 0.99677747178096, -0.0802164057407],
      "ImagePositionPatient": [-1023.7334989906, -1045.274098033, 14.78819246934],
      "ImageType": [
        "ORIGINAL",
        "PRIMARY",
        "FMRI",
        "NONE",
        "MB",
        "ND",
        "MOSAIC"
],
      "ImagedNucleus": "1H",
      "ImagingFrequency": 123.177257,
      "InPlanePhaseEncodingDirection": "ROW",
      "MRAcquisitionType": "2D",
      "MagneticFieldStrength": 3.0,
      "Manufacturer": "SIEMENS",
      "ManufacturerModelName": "TrioTim",
      "Modality": "MR",
      "NumberOfAverages": 1.0,
      "NumberOfPhaseEncodingSteps": 110,
      "PercentPhaseFieldOfView": 100.0,
      "PercentSampling": 100.0,
      "PerformedProcedureStepStartTime": "100939.375000",
      "PhotometricInterpretation": "MONOCHROME2",
      "PixelBandwidth": 1748.0,
      "PixelRepresentation": 0,
      "PixelSpacing": [2.3272726535797, 2.3272726535797],
      "ProtocolName": "WMGNG1_MB4_LR_SBRef",
      "ReferencedPerformedProcedureStepSequence": [
        {
          "ReferencedSOPClassUID": "1.2.840.10008.3.1.2.3.3",
          "ReferencedSOPInstanceUID": "1.3.12.2.1107.5.2.32.35422.30000020091001093942100000000"}
],
      "RepetitionTime": 1500.0,
      "Rows": 880,
      "SAR": 0.1492949970991,
      "SamplesPerPixel": 1,
      "ScanOptions": "FS",
      "ScanningSequence": "EP",
      "SequenceName": "epfid2d1_110",
      "SequenceVariant": [
        "SK",
        "SS"
],
      "SeriesDescription": "WMGNG1_MB4_LR_SBRef",
      "SeriesNumber": 15,
      "SeriesTime": "104238.812000",
      "SliceLocation": -47.722138112874,
      "SliceThickness": 2.2999999523163,
      "SmallestImagePixelValue": 0,
      "SoftwareVersions": "syngo MR B17",
      "SpacingBetweenSlices": 2.3000000271308,
      "SpecificCharacterSet": "ISO_IR 100",
      "StudyID": "1",
      "StudyTime": "100939.234000",
      "TransmitCoilName": "Body",
      "VariableFlipAngleFlag": "N",
      "WindowCenterWidthExplanation": "Algo1",
      "dBdt": 0.0},
    "slices": {}
  },
  "time": {
    "samples": {
      "AcquisitionNumber": [1, 2, 3, 4, 5, 6, 7, 8, 9, 10, 11, 12, 13, 14, 15, 16, 17, 18, 19, 20, 21, 22, 23, 24, 25, 26, 27, 28, 29, 30, 31, 32, 33, 34, 35, 36, 37, 38, 39, 40, 41, 42, 43, 44, 45, 46, 47, 48, 49, 50, 51, 52, 53, 54, 55, 56, 57, 58, 59, 60, 61, 62, 63, 64, 65, 66, 67, 68, 69, 70, 71, 72, 73, 74, 75, 76, 77, 78, 79, 80, 81, 82, 83, 84, 85, 86, 87, 88, 89, 90, 91, 92, 93, 94, 95, 96, 97, 98, 99, 100, 101, 102, 103, 104, 105, 106, 107, 108, 109, 110, 111, 112, 113, 114, 115, 116, 117, 118, 119, 120, 121, 122, 123, 124, 125, 126, 127, 128, 129, 130, 131, 132, 133, 134, 135, 136, 137, 138, 139, 140, 141, 142, 143, 144, 145, 146, 147, 148, 149, 150, 151, 152, 153, 154, 155, 156, 157, 158, 159, 160, 161, 162, 163, 164, 165, 166, 167, 168, 169, 170, 171, 172, 173, 174, 175, 176, 177, 178, 179, 180, 181, 182, 183, 184, 185, 186, 187, 188, 189, 190, 191, 192, 193, 194, 195, 196, 197, 198, 199, 200, 201, 202, 203, 204, 205, 206, 207, 208, 209, 210, 211, 212, 213, 214, 215, 216, 217, 218, 219, 220, 221, 222, 223, 224, 225, 226, 227, 228, 229, 230, 231, 232, 233, 234, 235, 236, 237, 238, 239, 240, 241, 242, 243, 244, 245, 246, 247, 248, 249, 250, 251, 252, 253, 254, 255, 256, 257, 258, 259, 260, 261, 262, 263, 264, 265, 266, 267, 268, 269, 270, 271, 272, 273, 274, 275, 276, 277, 278, 279, 280, 281, 282, 283, 284, 285, 286, 287, 288, 289, 290, 291, 292, 293, 294, 295, 296, 297, 298, 299, 300, 301, 302, 303, 304, 305, 306, 307, 308, 309, 310, 311, 312, 313, 314, 315, 316, 317, 318, 319, 320, 321, 322, 323, 324, 325, 326, 327, 328, 329, 330, 331, 332, 333, 334, 335, 336, 337, 338, 339, 340, 341, 342, 343, 344, 345, 346, 347, 348, 349, 350, 351, 352, 353, 354, 355, 356, 357],
      "AcquisitionTime": ["103622.182500", "103623.687500", "103625.192500", "103626.700000", "103628.205000", "103629.712500", "103631.217500", "103632.725000", "103634.230000", "103635.735000", "103637.242500", "103638.747500", "103640.255000", "103641.760000", "103643.265000", "103644.772500", "103646.277500", "103647.785000", "103649.290000", "103650.795000", "103652.302500", "103653.807500", "103655.315000", "103656.820000", "103658.325000", "103659.832500", "103701.337500", "103702.845000", "103704.350000", "103705.857500", "103707.362500", "103708.867500", "103710.375000", "103711.880000", "103713.387500", "103714.892500", "103716.397500", "103717.905000", "103719.410000", "103720.917500", "103722.422500", "103723.927500", "103725.435000", "103726.940000", "103728.447500", "103729.952500", "103731.457500", "103732.965000", "103734.470000", "103735.977500", "103737.482500", "103738.990000", "103740.495000", "103742.000000", "103743.507500", "103745.012500", "103746.520000", "103748.025000", "103749.530000", "103751.037500", "103752.542500", "103754.050000", "103755.555000", "103757.060000", "103758.567500", "103800.072500", "103801.580000", "103803.085000", "103804.590000", "103806.097500", "103807.602500", "103809.110000", "103810.615000", "103812.122500", "103813.627500", "103815.132500", "103816.640000", "103818.145000", "103819.652500", "103821.157500", "103822.662500", "103824.170000", "103825.675000", "103827.182500", "103828.687500", "103830.192500", "103831.700000", "103833.205000", "103834.712500", "103836.217500", "103837.725000", "103839.230000", "103840.735000", "103842.242500", "103843.747500", "103845.255000", "103846.760000", "103848.265000", "103849.772500", "103851.277500", "103852.785000", "103854.290000", "103855.795000", "103857.302500", "103858.807500", "103900.315000", "103901.820000", "103903.325000", "103904.832500", "103906.337500", "103907.845000", "103909.350000", "103910.857500", "103912.362500", "103913.867500", "103915.375000", "103916.880000", "103918.387500", "103919.892500", "103921.397500", "103922.905000", "103924.410000", "103925.917500", "103927.422500", "103928.927500", "103930.435000", "103931.940000", "103933.447500", "103934.952500", "103936.457500", "103937.965000", "103939.470000", "103940.977500", "103942.482500", "103943.990000", "103945.495000", "103947.000000", "103948.507500", "103950.012500", "103951.520000", "103953.025000", "103954.530000", "103956.037500", "103957.542500", "103959.050000", "104000.555000", "104002.060000", "104003.567500", "104005.072500", "104006.580000", "104008.085000", "104009.590000", "104011.097500", "104012.602500", "104014.110000", "104015.615000", "104017.122500", "104018.627500", "104020.132500", "104021.640000", "104023.145000", "104024.652500", "104026.157500", "104027.662500", "104029.170000", "104030.675000", "104032.182500", "104033.687500", "104035.192500", "104036.700000", "104038.205000", "104039.712500", "104041.217500", "104042.725000", "104044.230000", "104045.735000", "104047.242500", "104048.747500", "104050.255000", "104051.760000", "104053.265000", "104054.772500", "104056.277500", "104057.785000", "104059.290000", "104100.795000", "104102.302500", "104103.807500", "104105.315000", "104106.820000", "104108.325000", "104109.832500", "104111.337500", "104112.845000", "104114.350000", "104115.857500", "104117.362500", "104118.867500", "104120.375000", "104121.880000", "104123.387500", "104124.892500", "104126.397500", "104127.905000", "104129.410000", "104130.917500", "104132.422500", "104133.927500", "104135.435000", "104136.940000", "104138.447500", "104139.952500", "104141.457500", "104142.965000", "104144.470000", "104145.977500", "104147.482500", "104148.990000", "104150.495000", "104152.000000", "104153.507500", "104155.012500", "104156.520000", "104158.025000", "104159.530000", "104201.037500", "104202.542500", "104204.050000", "104205.555000", "104207.060000", "104208.567500", "104210.072500", "104211.580000", "104213.085000", "104214.590000", "104216.097500", "104217.602500", "104219.110000", "104220.615000", "104222.122500", "104223.627500", "104225.132500", "104226.640000", "104228.145000", "104229.652500", "104231.157500", "104232.662500", "104234.170000", "104235.675000", "104237.182500", "104238.687500", "104240.192500", "104241.700000", "104243.205000", "104244.712500", "104246.217500", "104247.725000", "104249.230000", "104250.735000", "104252.242500", "104253.747500", "104255.255000", "104256.760000", "104258.265000", "104259.772500", "104301.277500", "104302.785000", "104304.290000", "104305.795000", "104307.302500", "104308.807500", "104310.315000", "104311.820000", "104313.325000", "104314.832500", "104316.337500", "104317.845000", "104319.350000", "104320.857500", "104322.362500", "104323.867500", "104325.375000", "104326.880000", "104328.387500", "104329.892500", "104331.397500", "104332.905000", "104334.410000", "104335.917500", "104337.422500", "104338.927500", "104340.435000", "104341.940000", "104343.447500", "104344.952500", "104346.457500", "104347.965000", "104349.470000", "104350.977500", "104352.482500", "104353.990000", "104355.495000", "104357.000000", "104358.507500", "104400.012500", "104401.520000", "104403.025000", "104404.530000", "104406.037500", "104407.542500", "104409.050000", "104410.555000", "104412.060000", "104413.567500", "104415.072500", "104416.580000", "104418.085000", "104419.590000", "104421.097500", "104422.602500", "104424.110000", "104425.615000", "104427.122500", "104428.627500", "104430.132500", "104431.640000", "104433.145000", "104434.652500", "104436.157500", "104437.662500", "104439.170000", "104440.675000", "104442.182500", "104443.687500", "104445.192500", "104446.700000", "104448.205000", "104449.712500", "104451.217500", "104452.725000", "104454.230000", "104455.735000", "104457.242500", "104458.747500", "104500.255000", "104501.760000", "104503.265000", "104504.772500", "104506.277500", "104507.785000", "104509.290000", "104510.795000", "104512.302500", "104513.807500", "104515.315000", "104516.820000", "104518.325000"],
      "ContentTime": ["104238.828000", "104240.296000", "104242.296000", "104244.296000", "104246.796000", "104249.296000", "104250.796000", "104253.296000", "104255.796000", "104257.796000", "104300.296000", "104302.296000", "104305.296000", "104306.796000", "104309.796000", "104311.796000", "104314.296000", "104316.296000", "104318.796000", "104320.796000", "104323.296000", "104325.796000", "104327.796000", "104329.812000", "104332.296000", "104334.296000", "104337.296000", "104339.296000", "104341.296000", "104343.796000", "104346.296000", "104348.796000", "104351.296000", "104353.296000", "104355.796000", "104358.296000", "104400.796000", "104403.296000", "104405.296000", "104407.296000", "104409.796000", "104412.296000", "104414.796000", "104416.796000", "104419.296000", "104421.296000", "104424.296000", "104426.296000", "104428.796000", "104431.296000", "104433.296000", "104435.796000", "104438.296000", "104440.796000", "104443.296000", "104444.796000", "104447.796000", "104449.796000", "104451.796000", "104454.296000", "104456.796000", "104458.796000", "104500.796000", "104503.796000", "104505.796000", "104507.796000", "104510.796000", "104512.796000", "104514.796000", "104517.296000", "104519.796000", "104522.296000", "104524.296000", "104526.796000", "104528.796000", "104531.296000", "104533.296000", "104536.296000", "104538.796000", "104540.796000", "104542.796000", "104545.796000", "104547.796000", "104549.796000", "104552.296000", "104554.796000", "104557.296000", "104559.296000", "104601.796000", "104604.296000", "104605.796000", "104608.296000", "104610.796000", "104613.296000", "104615.296000", "104617.796000", "104620.296000", "104622.796000", "104624.796000", "104626.796000", "104629.796000", "104632.296000", "104634.312000", "104636.796000", "104638.796000", "104641.296000", "104643.296000", "104645.796000", "104648.296000", "104650.296000", "104652.796000", "104654.796000", "104657.296000", "104659.796000", "104702.296000", "104704.796000", "104706.796000", "104709.296000", "104711.796000", "104713.796000", "104716.296000", "104718.296000", "104720.296000", "104723.296000", "104725.296000", "104727.296000", "104729.796000", "104732.296000", "104734.296000", "104736.796000", "104739.296000", "104741.296000", "104743.796000", "104745.796000", "104747.796000", "104750.296000", "104752.796000", "104755.296000", "104757.796000", "104759.796000", "104801.796000", "104804.296000", "104806.796000", "104809.296000", "104811.296000", "104813.796000", "104815.796000", "104818.296000", "104820.296000", "104822.796000", "104824.796000", "104827.296000", "104829.296000", "104831.796000", "104834.296000", "104836.296000", "104839.296000", "104841.296000", "104843.296000", "104845.796000", "104848.296000", "104850.296000", "104852.796000", "104854.796000", "104857.296000", "104900.296000", "104902.296000", "104904.296000", "104906.796000", "104909.296000", "104911.796000", "104914.296000", "104916.296000", "104918.296000", "104920.796000", "104923.296000", "104925.296000", "104927.796000", "104929.796000", "104932.296000", "104934.796000", "104936.796000", "104939.796000", "104941.796000", "104944.296000", "104946.296000", "104948.796000", "104951.296000", "104953.796000", "104956.296000", "104958.296000", "105000.296000", "105002.796000", "105004.796000", "105007.796000", "105010.296000", "105011.796000", "105014.296000", "105016.796000", "105019.296000", "105021.296000", "105023.296000", "105025.796000", "105028.296000", "105030.296000", "105033.296000", "105035.296000", "105037.796000", "105039.796000", "105042.296000", "105044.296000", "105047.296000", "105049.296000", "105052.296000", "105054.296000", "105056.796000", "105058.796000", "105101.296000", "105103.796000", "105105.796000", "105107.796000", "105110.296000", "105112.796000", "105114.796000", "105117.296000", "105119.296000", "105121.796000", "105124.296000", "105126.796000", "105129.296000", "105131.296000", "105133.796000", "105136.296000", "105138.796000", "105140.796000", "105143.296000", "105145.796000", "105147.296000", "105149.796000", "105151.796000", "105154.296000", "105156.796000", "105159.296000", "105201.296000", "105203.296000", "105206.296000", "105208.296000", "105210.296000", "105212.296000", "105214.796000", "105216.796000", "105219.296000", "105221.296000", "105223.796000", "105226.296000", "105228.296000", "105231.296000", "105233.296000", "105235.296000", "105238.296000", "105240.796000", "105242.796000", "105244.796000", "105247.796000", "105249.296000", "105251.796000", "105254.296000", "105256.796000", "105258.796000", "105301.296000", "105303.796000", "105306.296000", "105308.296000", "105310.796000", "105312.796000", "105315.296000", "105317.796000", "105320.296000", "105322.296000", "105324.296000", "105326.796000", "105328.796000", "105331.296000", "105333.796000", "105335.796000", "105338.296000", "105340.796000", "105342.796000", "105345.296000", "105347.296000", "105350.296000", "105352.296000", "105354.796000", "105356.796000", "105359.296000", "105401.796000", "105403.796000", "105406.296000", "105408.796000", "105411.296000", "105413.796000", "105415.296000", "105418.296000", "105420.296000", "105422.796000", "105425.796000", "105427.796000", "105430.296000", "105432.296000", "105434.296000", "105436.796000", "105439.296000", "105441.296000", "105443.796000", "105446.296000", "105448.296000", "105450.796000", "105452.796000", "105455.296000", "105458.296000", "105500.296000", "105502.296000", "105504.796000", "105507.296000", "105509.296000", "105511.796000", "105513.796000", "105516.296000", "105518.796000", "105520.796000", "105523.296000", "105525.796000", "105528.296000", "105530.796000", "105532.796000", "105534.796000", "105537.296000", "105539.796000", "105541.796000", "105544.296000", "105546.296000", "105548.796000", "105551.296000", "105553.796000", "105555.812000", "105558.296000", "105600.296000", "105602.796000", "105604.796000", "105607.296000", "105609.796000", "105612.296000", "105614.296000", "105616.796000", "105618.796000", "105621.296000", "105623.296000"],
      "DataSetTrailingPadding": [
        "\u0000\u0000\u0000\u0000\u0000\u0000\u0000\u0000\u0000\u0000\u0000\u0000\u0000\u0000\u0000\u0000\u0000\u0000\u0000\u0000\u0000\u0000",
        "\u0000\u0000\u0000\u0000\u0000\u0000\u0000\u0000\u0000\u0000\u0000\u0000\u0000\u0000\u0000\u0000\u0000\u0000\u0000\u0000",
        "\u0000\u0000\u0000\u0000\u0000\u0000\u0000\u0000\u0000\u0000\u0000\u0000\u0000\u0000\u0000\u0000\u0000\u0000\u0000\u0000",
        "\u0000\u0000\u0000\u0000\u0000\u0000\u0000\u0000\u0000\u0000\u0000\u0000\u0000\u0000\u0000\u0000\u0000\u0000\u0000\u0000",
        "\u0000\u0000\u0000\u0000\u0000\u0000\u0000\u0000\u0000\u0000\u0000\u0000\u0000\u0000\u0000\u0000\u0000\u0000\u0000\u0000\u0000\u0000",
        "\u0000\u0000\u0000\u0000\u0000\u0000\u0000\u0000\u0000\u0000\u0000\u0000\u0000\u0000\u0000\u0000\u0000\u0000\u0000\u0000\u0000\u0000",
        "\u0000\u0000\u0000\u0000\u0000\u0000\u0000\u0000\u0000\u0000\u0000\u0000\u0000\u0000\u0000\u0000\u0000\u0000\u0000\u0000",
        "\u0000\u0000\u0000\u0000\u0000\u0000\u0000\u0000\u0000\u0000\u0000\u0000\u0000\u0000\u0000\u0000\u0000\u0000\u0000\u0000\u0000\u0000",
        "\u0000\u0000\u0000\u0000\u0000\u0000\u0000\u0000\u0000\u0000\u0000\u0000\u0000\u0000\u0000\u0000\u0000\u0000\u0000\u0000\u0000\u0000",
        "\u0000\u0000\u0000\u0000\u0000\u0000\u0000\u0000\u0000\u0000\u0000\u0000\u0000\u0000\u0000\u0000\u0000\u0000",
        "\u0000\u0000\u0000\u0000\u0000\u0000\u0000\u0000\u0000\u0000\u0000\u0000\u0000\u0000\u0000\u0000\u0000\u0000",
        "\u0000\u0000\u0000\u0000\u0000\u0000\u0000\u0000\u0000\u0000\u0000\u0000\u0000\u0000\u0000\u0000",
        "\u0000\u0000\u0000\u0000\u0000\u0000\u0000\u0000\u0000\u0000\u0000\u0000\u0000\u0000\u0000\u0000",
        "\u0000\u0000\u0000\u0000\u0000\u0000\u0000\u0000\u0000\u0000\u0000\u0000\u0000\u0000\u0000\u0000\u0000\u0000",
        "\u0000\u0000\u0000\u0000\u0000\u0000\u0000\u0000\u0000\u0000\u0000\u0000\u0000\u0000\u0000\u0000\u0000\u0000",
        "\u0000\u0000\u0000\u0000\u0000\u0000\u0000\u0000\u0000\u0000\u0000\u0000\u0000\u0000\u0000\u0000\u0000\u0000",
        "\u0000\u0000\u0000\u0000\u0000\u0000\u0000\u0000\u0000\u0000\u0000\u0000\u0000\u0000\u0000\u0000",
        "\u0000\u0000\u0000\u0000\u0000\u0000\u0000\u0000\u0000\u0000\u0000\u0000\u0000\u0000\u0000\u0000",
        "\u0000\u0000\u0000\u0000\u0000\u0000\u0000\u0000\u0000\u0000\u0000\u0000\u0000\u0000\u0000\u0000\u0000\u0000",
        "\u0000\u0000\u0000\u0000\u0000\u0000\u0000\u0000\u0000\u0000\u0000\u0000\u0000\u0000\u0000\u0000\u0000\u0000",
        "\u0000\u0000\u0000\u0000\u0000\u0000\u0000\u0000\u0000\u0000\u0000\u0000\u0000\u0000\u0000\u0000\u0000\u0000",
        "\u0000\u0000\u0000\u0000\u0000\u0000\u0000\u0000\u0000\u0000\u0000\u0000\u0000\u0000\u0000\u0000",
        "\u0000\u0000\u0000\u0000\u0000\u0000\u0000\u0000\u0000\u0000\u0000\u0000\u0000\u0000\u0000\u0000",
        "\u0000\u0000\u0000\u0000\u0000\u0000\u0000\u0000\u0000\u0000\u0000\u0000\u0000\u0000\u0000\u0000\u0000\u0000",
        "\u0000\u0000\u0000\u0000\u0000\u0000\u0000\u0000\u0000\u0000\u0000\u0000\u0000\u0000\u0000\u0000\u0000\u0000",
        "\u0000\u0000\u0000\u0000\u0000\u0000\u0000\u0000\u0000\u0000\u0000\u0000\u0000\u0000\u0000\u0000\u0000\u0000",
        "\u0000\u0000\u0000\u0000\u0000\u0000\u0000\u0000\u0000\u0000\u0000\u0000\u0000\u0000\u0000\u0000",
        "\u0000\u0000\u0000\u0000\u0000\u0000\u0000\u0000\u0000\u0000\u0000\u0000\u0000\u0000\u0000\u0000",
        "\u0000\u0000\u0000\u0000\u0000\u0000\u0000\u0000\u0000\u0000\u0000\u0000\u0000\u0000\u0000\u0000\u0000\u0000",
        "\u0000\u0000\u0000\u0000\u0000\u0000\u0000\u0000\u0000\u0000\u0000\u0000\u0000\u0000\u0000\u0000\u0000\u0000\u0000\u0000",
        "\u0000\u0000\u0000\u0000\u0000\u0000\u0000\u0000\u0000\u0000\u0000\u0000\u0000\u0000\u0000\u0000",
        "\u0000\u0000\u0000\u0000\u0000\u0000\u0000\u0000\u0000\u0000\u0000\u0000\u0000\u0000\u0000\u0000",
        "\u0000\u0000\u0000\u0000\u0000\u0000\u0000\u0000\u0000\u0000\u0000\u0000\u0000\u0000\u0000\u0000",
        "\u0000\u0000\u0000\u0000\u0000\u0000\u0000\u0000\u0000\u0000\u0000\u0000\u0000\u0000\u0000\u0000\u0000\u0000",
        "\u0000\u0000\u0000\u0000\u0000\u0000\u0000\u0000\u0000\u0000\u0000\u0000\u0000\u0000\u0000\u0000\u0000\u0000",
        "\u0000\u0000\u0000\u0000\u0000\u0000\u0000\u0000\u0000\u0000\u0000\u0000\u0000\u0000\u0000\u0000",
        "\u0000\u0000\u0000\u0000\u0000\u0000\u0000\u0000\u0000\u0000\u0000\u0000\u0000\u0000\u0000\u0000",
        "\u0000\u0000\u0000\u0000\u0000\u0000\u0000\u0000\u0000\u0000\u0000\u0000\u0000\u0000\u0000\u0000",
        "\u0000\u0000\u0000\u0000\u0000\u0000\u0000\u0000\u0000\u0000\u0000\u0000\u0000\u0000\u0000\u0000\u0000\u0000",
        "\u0000\u0000\u0000\u0000\u0000\u0000\u0000\u0000\u0000\u0000\u0000\u0000\u0000\u0000\u0000\u0000\u0000\u0000\u0000\u0000",
        "\u0000\u0000\u0000\u0000\u0000\u0000\u0000\u0000\u0000\u0000\u0000\u0000\u0000\u0000\u0000\u0000",
        "\u0000\u0000\u0000\u0000\u0000\u0000\u0000\u0000\u0000\u0000\u0000\u0000\u0000\u0000\u0000\u0000",
        "\u0000\u0000\u0000\u0000\u0000\u0000\u0000\u0000\u0000\u0000\u0000\u0000\u0000\u0000\u0000\u0000",
        "\u0000\u0000\u0000\u0000\u0000\u0000\u0000\u0000\u0000\u0000\u0000\u0000\u0000\u0000\u0000\u0000\u0000\u0000",
        "\u0000\u0000\u0000\u0000\u0000\u0000\u0000\u0000\u0000\u0000\u0000\u0000\u0000\u0000\u0000\u0000\u0000\u0000",
        "\u0000\u0000\u0000\u0000\u0000\u0000\u0000\u0000\u0000\u0000\u0000\u0000\u0000\u0000\u0000\u0000",
        "\u0000\u0000\u0000\u0000\u0000\u0000\u0000\u0000\u0000\u0000\u0000\u0000\u0000\u0000\u0000\u0000",
        "\u0000\u0000\u0000\u0000\u0000\u0000\u0000\u0000\u0000\u0000\u0000\u0000\u0000\u0000\u0000\u0000\u0000\u0000",
        "\u0000\u0000\u0000\u0000\u0000\u0000\u0000\u0000\u0000\u0000\u0000\u0000\u0000\u0000\u0000\u0000\u0000\u0000",
        "\u0000\u0000\u0000\u0000\u0000\u0000\u0000\u0000\u0000\u0000\u0000\u0000\u0000\u0000\u0000\u0000\u0000\u0000",
        "\u0000\u0000\u0000\u0000\u0000\u0000\u0000\u0000\u0000\u0000\u0000\u0000\u0000\u0000\u0000\u0000",
        "\u0000\u0000\u0000\u0000\u0000\u0000\u0000\u0000\u0000\u0000\u0000\u0000\u0000\u0000\u0000\u0000\u0000\u0000",
        "\u0000\u0000\u0000\u0000\u0000\u0000\u0000\u0000\u0000\u0000\u0000\u0000\u0000\u0000\u0000\u0000\u0000\u0000",
        "\u0000\u0000\u0000\u0000\u0000\u0000\u0000\u0000\u0000\u0000\u0000\u0000\u0000\u0000\u0000\u0000\u0000\u0000",
        "\u0000\u0000\u0000\u0000\u0000\u0000\u0000\u0000\u0000\u0000\u0000\u0000\u0000\u0000\u0000\u0000\u0000\u0000",
        "\u0000\u0000\u0000\u0000\u0000\u0000\u0000\u0000\u0000\u0000\u0000\u0000\u0000\u0000\u0000\u0000",
        "\u0000\u0000\u0000\u0000\u0000\u0000\u0000\u0000\u0000\u0000\u0000\u0000",
        "\u0000\u0000\u0000\u0000\u0000\u0000\u0000\u0000\u0000\u0000\u0000\u0000\u0000\u0000",
        "\u0000\u0000\u0000\u0000\u0000\u0000\u0000\u0000\u0000\u0000\u0000\u0000",
        "\u0000\u0000\u0000\u0000\u0000\u0000\u0000\u0000\u0000\u0000\u0000\u0000\u0000\u0000",
        "\u0000\u0000\u0000\u0000\u0000\u0000\u0000\u0000\u0000\u0000\u0000\u0000",
        "\u0000\u0000\u0000\u0000\u0000\u0000\u0000\u0000\u0000\u0000\u0000\u0000",
        "\u0000\u0000\u0000\u0000\u0000\u0000\u0000\u0000\u0000\u0000\u0000\u0000\u0000\u0000",
        "\u0000\u0000\u0000\u0000\u0000\u0000\u0000\u0000\u0000\u0000\u0000\u0000",
        "\u0000\u0000\u0000\u0000\u0000\u0000\u0000\u0000\u0000\u0000\u0000\u0000\u0000\u0000",
        "\u0000\u0000\u0000\u0000\u0000\u0000\u0000\u0000\u0000\u0000\u0000\u0000",
        "\u0000\u0000\u0000\u0000\u0000\u0000\u0000\u0000\u0000\u0000\u0000\u0000",
        "\u0000\u0000\u0000\u0000\u0000\u0000\u0000\u0000\u0000\u0000\u0000\u0000\u0000\u0000",
        "\u0000\u0000\u0000\u0000\u0000\u0000\u0000\u0000\u0000\u0000\u0000\u0000",
        "\u0000\u0000\u0000\u0000\u0000\u0000\u0000\u0000\u0000\u0000\u0000\u0000",
        "\u0000\u0000\u0000\u0000\u0000\u0000\u0000\u0000\u0000\u0000\u0000\u0000",
        "\u0000\u0000\u0000\u0000\u0000\u0000\u0000\u0000\u0000\u0000\u0000\u0000",
        "\u0000\u0000\u0000\u0000\u0000\u0000\u0000\u0000\u0000\u0000\u0000\u0000\u0000\u0000\u0000\u0000",
        "\u0000\u0000\u0000\u0000\u0000\u0000\u0000\u0000\u0000\u0000\u0000\u0000",
        "\u0000\u0000\u0000\u0000\u0000\u0000\u0000\u0000\u0000\u0000\u0000\u0000",
        "\u0000\u0000\u0000\u0000\u0000\u0000\u0000\u0000\u0000\u0000\u0000\u0000",
        "\u0000\u0000\u0000\u0000\u0000\u0000\u0000\u0000\u0000\u0000\u0000\u0000",
        "\u0000\u0000\u0000\u0000\u0000\u0000\u0000\u0000\u0000\u0000\u0000\u0000\u0000\u0000",
        "\u0000\u0000\u0000\u0000\u0000\u0000\u0000\u0000\u0000\u0000\u0000\u0000",
        "\u0000\u0000\u0000\u0000\u0000\u0000\u0000\u0000\u0000\u0000\u0000\u0000",
        "\u0000\u0000\u0000\u0000\u0000\u0000\u0000\u0000\u0000\u0000\u0000\u0000",
        "\u0000\u0000\u0000\u0000\u0000\u0000\u0000\u0000\u0000\u0000\u0000\u0000",
        "\u0000\u0000\u0000\u0000\u0000\u0000\u0000\u0000\u0000\u0000\u0000\u0000\u0000\u0000",
        "\u0000\u0000\u0000\u0000\u0000\u0000\u0000\u0000\u0000\u0000\u0000\u0000",
        "\u0000\u0000\u0000\u0000\u0000\u0000\u0000\u0000\u0000\u0000\u0000\u0000",
        "\u0000\u0000\u0000\u0000\u0000\u0000\u0000\u0000\u0000\u0000\u0000\u0000",
        "\u0000\u0000\u0000\u0000\u0000\u0000\u0000\u0000\u0000\u0000\u0000\u0000",
        "\u0000\u0000\u0000\u0000\u0000\u0000\u0000\u0000\u0000\u0000\u0000\u0000\u0000\u0000",
        "\u0000\u0000\u0000\u0000\u0000\u0000\u0000\u0000\u0000\u0000\u0000\u0000",
        "\u0000\u0000\u0000\u0000\u0000\u0000\u0000\u0000\u0000\u0000\u0000\u0000",
        "\u0000\u0000\u0000\u0000\u0000\u0000\u0000\u0000\u0000\u0000\u0000\u0000\u0000\u0000",
        "\u0000\u0000\u0000\u0000\u0000\u0000\u0000\u0000\u0000\u0000\u0000\u0000",
        "\u0000\u0000\u0000\u0000\u0000\u0000\u0000\u0000\u0000\u0000\u0000\u0000\u0000\u0000",
        "\u0000\u0000\u0000\u0000\u0000\u0000\u0000\u0000\u0000\u0000\u0000\u0000",
        "\u0000\u0000\u0000\u0000\u0000\u0000\u0000\u0000\u0000\u0000\u0000\u0000",
        "\u0000\u0000\u0000\u0000\u0000\u0000\u0000\u0000\u0000\u0000\u0000\u0000",
        "\u0000\u0000\u0000\u0000\u0000\u0000\u0000\u0000\u0000\u0000\u0000\u0000",
        "\u0000\u0000\u0000\u0000\u0000\u0000\u0000\u0000\u0000\u0000\u0000\u0000\u0000\u0000",
        "\u0000\u0000\u0000\u0000\u0000\u0000\u0000\u0000\u0000\u0000\u0000\u0000",
        "\u0000\u0000\u0000\u0000\u0000\u0000\u0000\u0000",
