{
  "AcquisitionMatrixPE": 110,
  "AcquisitionNumber": 1,
  "AcquisitionTime": "18:10:34.807500",
  "BandwidthPerPixelPhaseEncode": 26.35,
  "BaseResolution": 110,
  "CoilString": "C:HEA;HEP",
  "ConversionSoftware": "dcm2niix",
  "ConversionSoftwareVersion": "v1.0.20190410  GCC6.3.0",
  "DerivedVendorReportedEchoSpacing": 0.000690012,
  "DeviceSerialNumber": "35422",
  "DwellTime": 2.6e-06,
  "EchoTime": 0.03,
  "EffectiveEchoSpacing": 0.000345006,
  "FlipAngle": 85,
  "ImageComments": "Unaliased_MB4_PE4_LB",
  "ImageOrientationPatientDICOM": [0.999923, 0.00153091, 0.0123008, 2.04433e-10, 0.992344, -0.123504],
  "ImageType": [
    "ORIGINAL",
    "PRIMARY",
    "FMRI",
    "NONE",
    "MB",
    "ND",
    "MOSAIC"
],
  "ImagingFrequency": 123.177,
  "InPlanePhaseEncodingDirectionDICOM": "ROW",
  "InstitutionAddress": "kwanakro_599_C4F276_Seoul_KR_ZIP",
  "InstitutionName": "SNUBIC",
  "InstitutionalDepartmentName": "Department",
  "MRAcquisitionType": "2D",
  "MagneticFieldStrength": 3,
  "Manufacturer": "Siemens",
  "ManufacturersModelName": "TrioTim",
  "Modality": "MR",
  "MultibandAccelerationFactor": 4,
  "ParallelReductionFactorInPlane": 2,
  "PartialFourier": 1,
  "PatientPosition": "HFS",
  "PercentPhaseFOV": 100,
  "PhaseEncodingDirection": "i-",
  "PhaseEncodingSteps": 110,
  "PhaseResolution": 1,
  "PixelBandwidth": 1748,
  "ProcedureStepDescription": "SNU_SAVED",
  "ProtocolName": "WMGNG2_MB4_LR_SBRef",
  "PulseSequenceDetails": "%CustomerSeq%_cmrr_mbep2d_bold",
  "ReceiveCoilName": "32Ch_Head",
  "ReconMatrixPE": 110,
  "RefLinesPE": 32,
  "RepetitionTime": 1.5,
  "SAR": 0.118716,
  "ScanOptions": "FS",
  "ScanningSequence": "EP",
  "SequenceName": "epfid2d1_110",
  "SequenceVariant": "SK_SS",
  "SeriesDescription": "WMGNG2_MB4_LR_SBRef",
  "SeriesNumber": 20,
  "ShimSetting": [-4106, -29730, -2020, 826, -55, 536, 128, -190],
  "SliceThickness": 2.3,
  "SliceTiming": [0, 0.6575, 1.3175, 0.47, 1.1275, 0.2825, 0.94, 0.0925, 0.7525, 1.41, 0.5625, 1.2225, 0.375, 1.035, 0.1875, 0.845, 0, 0.6575, 1.3175, 0.47, 1.1275, 0.2825, 0.94, 0.0925, 0.7525, 1.41, 0.5625, 1.2225, 0.375, 1.035, 0.1875, 0.845, 0, 0.6575, 1.3175, 0.47, 1.1275, 0.2825, 0.94, 0.0925, 0.7525, 1.41, 0.5625, 1.2225, 0.375, 1.035, 0.1875, 0.845, 0, 0.6575, 1.3175, 0.47, 1.1275, 0.2825, 0.94, 0.0925, 0.7525, 1.41, 0.5625, 1.2225, 0.375, 1.035, 0.1875, 0.845],
  "SoftwareVersions": "syngo_MR_B17",
  "SpacingBetweenSlices": 2.3,
  "StationName": "MRC35422",
  "TaskName": "wmgng",
  "TotalReadoutTime": 0.0376057,
  "TxRefAmp": 306.57,
  "dcmmeta_affine": [
    [-2.3270938396453857, 4.757708671476735e-10, 0.02851000614464283, 128.95257568359375],
    [-0.0035628466866910458, 2.309455156326294, -0.2840369939804077, -114.09565734863281],
    [0.02862721122801304, 0.2874270975589752, 2.2822160720825195, -52.11751937866211],
    [0.0, 0.0, 0.0, 1.0]
],
  "dcmmeta_reorient_transform": [
    [0.0, -1.0, 0.0, 109.0],
    [1.0, 0.0, 0.0, 0.0],
    [0.0, 0.0, 1.0, 0.0],
    [0.0, 0.0, 0.0, 1.0]
],
  "dcmmeta_shape": [110, 110, 64, 357],
  "dcmmeta_slice_dim": 2,
  "dcmmeta_version": 0.6,
  "global": {
    "const": {
      "AcquisitionMatrix": [0, 110, 110, 0],
      "AngioFlag": "N",
      "BitsAllocated": 16,
      "BitsStored": 12,
      "Columns": 880,
      "EchoNumbers": 1,
      "EchoTime": 30.0,
      "EchoTrainLength": 1,
      "FlipAngle": 85.0,
      "HighBit": 11,
      "ImageOrientationPatient": [0.9999231709188, 0.00153091071391, 0.01230075493943, 2.044328e-10, 0.99234409490085, -0.1235038352255],
      "ImagePositionPatient": [-1024.8837149733, -1028.1469445849, 78.849989395027],
      "ImageType": [
        "ORIGINAL",
        "PRIMARY",
        "FMRI",
        "NONE",
        "MB",
        "ND",
        "MOSAIC"
],
      "ImagedNucleus": "1H",
      "ImagingFrequency": 123.177339,
      "InPlanePhaseEncodingDirection": "ROW",
      "MRAcquisitionType": "2D",
      "MagneticFieldStrength": 3.0,
      "Manufacturer": "SIEMENS",
      "ManufacturerModelName": "TrioTim",
      "Modality": "MR",
      "NumberOfAverages": 1.0,
      "NumberOfPhaseEncodingSteps": 110,
      "PercentPhaseFieldOfView": 100.0,
      "PercentSampling": 100.0,
      "PerformedProcedureStepStartTime": "173532.671000",
      "PhotometricInterpretation": "MONOCHROME2",
      "PixelBandwidth": 1748.0,
      "PixelRepresentation": 0,
      "PixelSpacing": [2.3272726535797, 2.3272726535797],
      "ProtocolName": "WMGNG2_MB4_LR_SBRef",
      "ReferencedPerformedProcedureStepSequence": [
        {
          "ReferencedSOPClassUID": "1.2.840.10008.3.1.2.3.3",
          "ReferencedSOPInstanceUID": "1.3.12.2.1107.5.2.32.35422.30000020033000173859300000002"}
],
      "RepetitionTime": 1500.0,
      "Rows": 880,
      "SAR": 0.11871648365809,
      "SamplesPerPixel": 1,
      "ScanOptions": "FS",
      "ScanningSequence": "EP",
      "SequenceName": "epfid2d1_110",
      "SequenceVariant": [
        "SK",
        "SS"
],
      "SeriesDescription": "WMGNG2_MB4_LR_SBRef",
      "SeriesNumber": 20,
      "SeriesTime": "182231.546000",
      "SliceLocation": -36.025920490092,
      "SliceThickness": 2.2999999523163,
      "SmallestImagePixelValue": 0,
      "SoftwareVersions": "syngo MR B17",
      "SpacingBetweenSlices": 2.3000000240812,
      "SpecificCharacterSet": "ISO_IR 100",
      "StudyID": "1",
      "StudyTime": "173532.625000",
      "TransmitCoilName": "Body",
      "VariableFlipAngleFlag": "N",
      "WindowCenterWidthExplanation": "Algo1",
      "dBdt": 0.0},
    "slices": {}
  },
  "time": {
    "samples": {
      "AcquisitionNumber": [1, 2, 3, 4, 5, 6, 7, 8, 9, 10, 11, 12, 13, 14, 15, 16, 17, 18, 19, 20, 21, 22, 23, 24, 25, 26, 27, 28, 29, 30, 31, 32, 33, 34, 35, 36, 37, 38, 39, 40, 41, 42, 43, 44, 45, 46, 47, 48, 49, 50, 51, 52, 53, 54, 55, 56, 57, 58, 59, 60, 61, 62, 63, 64, 65, 66, 67, 68, 69, 70, 71, 72, 73, 74, 75, 76, 77, 78, 79, 80, 81, 82, 83, 84, 85, 86, 87, 88, 89, 90, 91, 92, 93, 94, 95, 96, 97, 98, 99, 100, 101, 102, 103, 104, 105, 106, 107, 108, 109, 110, 111, 112, 113, 114, 115, 116, 117, 118, 119, 120, 121, 122, 123, 124, 125, 126, 127, 128, 129, 130, 131, 132, 133, 134, 135, 136, 137, 138, 139, 140, 141, 142, 143, 144, 145, 146, 147, 148, 149, 150, 151, 152, 153, 154, 155, 156, 157, 158, 159, 160, 161, 162, 163, 164, 165, 166, 167, 168, 169, 170, 171, 172, 173, 174, 175, 176, 177, 178, 179, 180, 181, 182, 183, 184, 185, 186, 187, 188, 189, 190, 191, 192, 193, 194, 195, 196, 197, 198, 199, 200, 201, 202, 203, 204, 205, 206, 207, 208, 209, 210, 211, 212, 213, 214, 215, 216, 217, 218, 219, 220, 221, 222, 223, 224, 225, 226, 227, 228, 229, 230, 231, 232, 233, 234, 235, 236, 237, 238, 239, 240, 241, 242, 243, 244, 245, 246, 247, 248, 249, 250, 251, 252, 253, 254, 255, 256, 257, 258, 259, 260, 261, 262, 263, 264, 265, 266, 267, 268, 269, 270, 271, 272, 273, 274, 275, 276, 277, 278, 279, 280, 281, 282, 283, 284, 285, 286, 287, 288, 289, 290, 291, 292, 293, 294, 295, 296, 297, 298, 299, 300, 301, 302, 303, 304, 305, 306, 307, 308, 309, 310, 311, 312, 313, 314, 315, 316, 317, 318, 319, 320, 321, 322, 323, 324, 325, 326, 327, 328, 329, 330, 331, 332, 333, 334, 335, 336, 337, 338, 339, 340, 341, 342, 343, 344, 345, 346, 347, 348, 349, 350, 351, 352, 353, 354, 355, 356, 357],
      "AcquisitionTime": ["181034.807500", "181036.312500", "181037.817500", "181039.325000", "181040.830000", "181042.337500", "181043.842500", "181045.347500", "181046.855000", "181048.360000", "181049.867500", "181051.372500", "181052.880000", "181054.385000", "181055.890000", "181057.397500", "181058.902500", "181100.410000", "181101.915000", "181103.420000", "181104.927500", "181106.432500", "181107.940000", "181109.445000", "181110.950000", "181112.457500", "181113.962500", "181115.470000", "181116.975000", "181118.480000", "181119.987500", "181121.492500", "181123.000000", "181124.505000", "181126.012500", "181127.517500", "181129.022500", "181130.530000", "181132.035000", "181133.542500", "181135.047500", "181136.552500", "181138.060000", "181139.565000", "181141.072500", "181142.577500", "181144.082500", "181145.590000", "181147.095000", "181148.602500", "181150.107500", "181151.615000", "181153.120000", "181154.625000", "181156.132500", "181157.637500", "181159.145000", "181200.650000", "181202.155000", "181203.662500", "181205.167500", "181206.675000", "181208.180000", "181209.685000", "181211.192500", "181212.697500", "181214.205000", "181215.710000", "181217.215000", "181218.722500", "181220.227500", "181221.735000", "181223.240000", "181224.747500", "181226.252500", "181227.757500", "181229.265000", "181230.770000", "181232.277500", "181233.782500", "181235.287500", "181236.795000", "181238.300000", "181239.807500", "181241.312500", "181242.817500", "181244.325000", "181245.830000", "181247.337500", "181248.842500", "181250.347500", "181251.855000", "181253.360000", "181254.867500", "181256.372500", "181257.880000", "181259.385000", "181300.890000", "181302.397500", "181303.902500", "181305.410000", "181306.915000", "181308.420000", "181309.927500", "181311.432500", "181312.940000", "181314.445000", "181315.950000", "181317.457500", "181318.962500", "181320.470000", "181321.975000", "181323.480000", "181324.987500", "181326.492500", "181328.000000", "181329.505000", "181331.012500", "181332.517500", "181334.022500", "181335.530000", "181337.035000", "181338.542500", "181340.047500", "181341.552500", "181343.060000", "181344.565000", "181346.072500", "181347.577500", "181349.082500", "181350.590000", "181352.095000", "181353.602500", "181355.107500", "181356.615000", "181358.120000", "181359.625000", "181401.132500", "181402.637500", "181404.145000", "181405.650000", "181407.155000", "181408.662500", "181410.167500", "181411.675000", "181413.180000", "181414.685000", "181416.192500", "181417.697500", "181419.205000", "181420.710000", "181422.215000", "181423.722500", "181425.227500", "181426.735000", "181428.240000", "181429.747500", "181431.252500", "181432.757500", "181434.265000", "181435.770000", "181437.277500", "181438.782500", "181440.287500", "181441.795000", "181443.300000", "181444.807500", "181446.312500", "181447.817500", "181449.325000", "181450.830000", "181452.337500", "181453.842500", "181455.347500", "181456.855000", "181458.360000", "181459.867500", "181501.372500", "181502.880000", "181504.385000", "181505.890000", "181507.397500", "181508.902500", "181510.410000", "181511.915000", "181513.420000", "181514.927500", "181516.432500", "181517.940000", "181519.445000", "181520.950000", "181522.457500", "181523.962500", "181525.470000", "181526.975000", "181528.480000", "181529.987500", "181531.492500", "181533.000000", "181534.505000", "181536.012500", "181537.517500", "181539.022500", "181540.530000", "181542.035000", "181543.542500", "181545.047500", "181546.552500", "181548.060000", "181549.565000", "181551.072500", "181552.577500", "181554.082500", "181555.590000", "181557.095000", "181558.602500", "181600.107500", "181601.615000", "181603.120000", "181604.625000", "181606.132500", "181607.637500", "181609.145000", "181610.650000", "181612.155000", "181613.662500", "181615.167500", "181616.675000", "181618.180000", "181619.685000", "181621.192500", "181622.697500", "181624.205000", "181625.710000", "181627.215000", "181628.722500", "181630.227500", "181631.735000", "181633.240000", "181634.747500", "181636.252500", "181637.757500", "181639.265000", "181640.770000", "181642.277500", "181643.782500", "181645.287500", "181646.795000", "181648.300000", "181649.807500", "181651.312500", "181652.817500", "181654.325000", "181655.830000", "181657.337500", "181658.842500", "181700.347500", "181701.855000", "181703.360000", "181704.867500", "181706.372500", "181707.880000", "181709.385000", "181710.890000", "181712.397500", "181713.902500", "181715.410000", "181716.915000", "181718.420000", "181719.927500", "181721.432500", "181722.940000", "181724.445000", "181725.950000", "181727.457500", "181728.962500", "181730.470000", "181731.975000", "181733.480000", "181734.987500", "181736.492500", "181738.000000", "181739.505000", "181741.012500", "181742.517500", "181744.022500", "181745.530000", "181747.035000", "181748.542500", "181750.047500", "181751.552500", "181753.060000", "181754.565000", "181756.072500", "181757.577500", "181759.082500", "181800.590000", "181802.095000", "181803.602500", "181805.107500", "181806.615000", "181808.120000", "181809.625000", "181811.132500", "181812.637500", "181814.145000", "181815.650000", "181817.155000", "181818.662500", "181820.167500", "181821.675000", "181823.180000", "181824.685000", "181826.192500", "181827.697500", "181829.205000", "181830.710000", "181832.215000", "181833.722500", "181835.227500", "181836.735000", "181838.240000", "181839.747500", "181841.252500", "181842.757500", "181844.265000", "181845.770000", "181847.277500", "181848.782500", "181850.287500", "181851.795000", "181853.300000", "181854.807500", "181856.312500", "181857.817500", "181859.325000", "181900.830000", "181902.337500", "181903.842500", "181905.347500", "181906.855000", "181908.360000", "181909.867500", "181911.372500", "181912.880000", "181914.385000", "181915.890000", "181917.397500", "181918.902500", "181920.410000", "181921.915000", "181923.420000", "181924.927500", "181926.432500", "181927.940000", "181929.445000", "181930.950000"],
      "ContentTime": ["182231.562000", "182231.562000", "182231.562000", "182231.562000", "182231.562000", "182231.562000", "182231.562000", "182311.546000", "182311.546000", "182311.562000", "182311.562000", "182311.562000", "182311.562000", "182311.562000", "182311.562000", "182311.562000", "182311.562000", "182311.562000", "182311.578000", "182311.578000", "182311.578000", "182311.578000", "182311.578000", "182311.578000", "182311.578000", "182411.546000", "182411.546000", "182411.562000", "182411.562000", "182411.562000", "182411.562000", "182411.562000", "182411.578000", "182411.578000", "182411.578000", "182411.578000", "182411.578000", "182411.578000", "182411.593000", "182411.593000", "182411.593000", "182411.593000", "182411.593000", "182411.593000", "182411.593000", "182411.609000", "182411.609000", "182411.609000", "182411.609000", "182411.609000", "182411.609000", "182511.546000", "182511.546000", "182511.562000", "182511.562000", "182511.562000", "182511.578000", "182511.578000", "182511.578000", "182511.578000", "182511.578000", "182511.578000", "182511.578000", "182511.593000", "182511.593000", "182511.593000", "182511.593000", "182511.593000", "182511.593000", "182511.609000", "182511.609000", "182511.609000", "182511.609000", "182511.609000", "182511.625000", "182511.625000", "182511.625000", "182611.546000", "182611.546000", "182611.562000", "182611.562000", "182611.562000", "182611.578000", "182611.578000", "182611.578000", "182611.578000", "182611.578000", "182611.578000", "182611.593000", "182611.593000", "182611.593000", "182611.593000", "182611.593000", "182611.593000", "182611.609000", "182611.609000", "182611.609000", "182611.609000", "182611.625000", "182611.625000", "182611.625000", "182611.625000", "182611.625000", "182711.546000", "182711.546000", "182711.562000", "182711.562000", "182711.562000", "182711.562000", "182711.562000", "182711.562000", "182711.562000", "182711.562000", "182711.562000", "182711.578000", "182711.578000", "182711.578000", "182711.578000", "182711.578000", "182711.578000", "182711.578000", "182711.578000", "182711.578000", "182711.593000", "182711.593000", "182711.593000", "182711.593000", "182711.593000", "182711.593000", "182811.546000", "182811.546000", "182811.562000", "182811.562000", "182811.562000", "182811.562000", "182811.562000", "182811.562000", "182811.562000", "182811.562000", "182811.562000", "182811.578000", "182811.578000", "182811.578000", "182811.578000", "182811.578000", "182811.578000", "182811.593000", "182811.593000", "182811.609000", "182811.609000", "182811.609000", "182811.609000", "182811.609000", "182811.609000", "182811.609000", "182911.546000", "182911.546000", "182911.562000", "182911.562000", "182911.562000", "182911.562000", "182911.562000", "182911.562000", "182911.562000", "182911.562000", "182911.562000", "182911.578000", "182911.578000", "182911.578000", "182911.578000", "182911.578000", "182911.578000", "182911.578000", "182911.578000", "182911.578000", "182911.593000", "182911.593000", "182911.593000", "182911.593000", "182911.593000", "182911.593000", "183011.546000", "183011.546000", "183011.562000", "183011.562000", "183011.562000", "183011.562000", "183011.578000", "183011.578000", "183011.578000", "183011.578000", "183011.578000", "183011.578000", "183011.578000", "183011.578000", "183011.593000", "183011.593000", "183011.593000", "183011.593000", "183011.593000", "183011.593000", "183011.593000", "183011.593000", "183011.593000", "183011.609000", "183011.609000", "183111.546000", "183111.546000", "183111.562000", "183111.562000", "183111.562000", "183111.562000", "183111.562000", "183111.578000", "183111.578000", "183111.578000", "183111.578000", "183111.578000", "183111.593000", "183111.593000", "183111.593000", "183111.593000", "183111.593000", "183111.593000", "183111.593000", "183111.593000", "183111.593000", "183111.609000", "183111.609000", "183111.609000", "183111.609000", "183111.609000", "183211.546000", "183211.546000", "183211.562000", "183211.562000", "183211.562000", "183211.562000", "183211.562000", "183211.562000", "183211.562000", "183211.562000", "183211.562000", "183211.578000", "183211.578000", "183211.578000", "183211.578000", "183211.578000", "183211.578000", "183211.578000", "183211.578000", "183211.593000", "183211.593000", "183211.593000", "183211.593000", "183211.593000", "183211.593000", "183211.609000", "183311.546000", "183311.546000", "183311.562000", "183311.562000", "183311.562000", "183311.562000", "183311.562000", "183311.562000", "183311.562000", "183311.562000", "183311.562000", "183311.578000", "183311.578000", "183311.578000", "183311.578000", "183311.578000", "183311.578000", "183311.578000", "183311.578000", "183311.593000", "183311.593000", "183311.593000", "183311.593000", "183311.593000", "183311.609000", "183311.609000", "183411.546000", "183411.546000", "183411.562000", "183411.562000", "183411.562000", "183411.562000", "183411.562000", "183411.562000", "183411.562000", "183411.562000", "183411.578000", "183411.578000", "183411.578000", "183411.578000", "183411.578000", "183411.593000", "183411.593000", "183411.593000", "183411.593000", "183411.609000", "183411.609000", "183411.609000", "183411.609000", "183411.609000", "183411.609000", "183411.609000", "183511.546000", "183511.546000", "183511.562000", "183511.562000", "183511.562000", "183511.562000", "183511.562000", "183511.562000", "183511.562000", "183511.562000", "183511.562000", "183511.578000", "183511.578000", "183511.578000", "183511.578000", "183511.578000", "183511.578000", "183511.578000", "183511.578000", "183511.593000", "183511.593000", "183511.593000", "183511.593000", "183511.593000", "183511.593000", "183511.593000", "183559.046000", "183559.046000", "183559.062000", "183559.078000", "183559.078000", "183559.078000", "183559.078000", "183559.078000", "183559.093000", "183559.093000", "183559.093000", "183559.093000", "183559.093000", "183559.093000", "183559.093000", "183559.093000", "183559.093000", "183559.109000", "183559.109000", "183559.109000", "183559.109000"],
      "DataSetTrailingPadding": [
        "\u0000\u0000\u0000\u0000\u0000\u0000\u0000\u0000\u0000\u0000\u0000\u0000\u0000\u0000\u0000\u0000\u0000\u0000\u0000\u0000\u0000\u0000\u0000\u0000\u0000\u0000\u0000\u0000\u0000\u0000\u0000\u0000\u0000\u0000\u0000\u0000\u0000\u0000\u0000\u0000\u0000\u0000\u0000\u0000\u0000\u0000\u0000\u0000\u0000\u0000\u0000\u0000\u0000\u0000\u0000\u0000\u0000\u0000\u0000\u0000\u0000\u0000\u0000\u0000\u0000\u0000\u0000\u0000\u0000\u0000\u0000\u0000\u0000\u0000\u0000\u0000\u0000\u0000\u0000\u0000\u0000\u0000\u0000\u0000\u0000\u0000\u0000\u0000\u0000\u0000\u0000\u0000\u0000\u0000\u0000\u0000\u0000\u0000\u0000\u0000\u0000\u0000\u0000\u0000\u0000\u0000\u0000\u0000\u0000\u0000\u0000\u0000\u0000\u0000\u0000\u0000\u0000\u0000\u0000\u0000\u0000\u0000\u0000\u0000\u0000\u0000\u0000\u0000",
        "\u0000\u0000\u0000\u0000\u0000\u0000\u0000\u0000\u0000\u0000\u0000\u0000\u0000\u0000\u0000\u0000\u0000\u0000\u0000\u0000\u0000\u0000\u0000\u0000\u0000\u0000\u0000\u0000\u0000\u0000\u0000\u0000\u0000\u0000\u0000\u0000\u0000\u0000\u0000\u0000\u0000\u0000\u0000\u0000\u0000\u0000\u0000\u0000\u0000\u0000\u0000\u0000\u0000\u0000\u0000\u0000\u0000\u0000\u0000\u0000\u0000\u0000\u0000\u0000\u0000\u0000\u0000\u0000\u0000\u0000\u0000\u0000\u0000\u0000\u0000\u0000\u0000\u0000\u0000\u0000\u0000\u0000\u0000\u0000\u0000\u0000\u0000\u0000\u0000\u0000\u0000\u0000\u0000\u0000\u0000\u0000\u0000\u0000\u0000\u0000\u0000\u0000\u0000\u0000\u0000\u0000\u0000\u0000\u0000\u0000\u0000\u0000\u0000\u0000\u0000\u0000\u0000\u0000\u0000\u0000\u0000\u0000\u0000\u0000\u0000\u0000",
        "\u0000\u0000\u0000\u0000\u0000\u0000\u0000\u0000\u0000\u0000\u0000\u0000\u0000\u0000\u0000\u0000\u0000\u0000\u0000\u0000\u0000\u0000\u0000\u0000\u0000\u0000\u0000\u0000\u0000\u0000\u0000\u0000\u0000\u0000\u0000\u0000\u0000\u0000\u0000\u0000\u0000\u0000\u0000\u0000\u0000\u0000\u0000\u0000\u0000\u0000\u0000\u0000\u0000\u0000\u0000\u0000\u0000\u0000\u0000\u0000\u0000\u0000\u0000\u0000\u0000\u0000\u0000\u0000\u0000\u0000\u0000\u0000\u0000\u0000\u0000\u0000\u0000\u0000\u0000\u0000\u0000\u0000\u0000\u0000\u0000\u0000\u0000\u0000\u0000\u0000\u0000\u0000\u0000\u0000\u0000\u0000\u0000\u0000\u0000\u0000\u0000\u0000\u0000\u0000\u0000\u0000\u0000\u0000\u0000\u0000\u0000\u0000\u0000\u0000\u0000\u0000\u0000\u0000\u0000\u0000\u0000\u0000\u0000\u0000\u0000\u0000",
        "\u0000\u0000\u0000\u0000\u0000\u0000\u0000\u0000\u0000\u0000\u0000\u0000\u0000\u0000\u0000\u0000\u0000\u0000\u0000\u0000\u0000\u0000\u0000\u0000\u0000\u0000\u0000\u0000\u0000\u0000\u0000\u0000\u0000\u0000\u0000\u0000\u0000\u0000\u0000\u0000\u0000\u0000\u0000\u0000\u0000\u0000\u0000\u0000\u0000\u0000\u0000\u0000\u0000\u0000\u0000\u0000\u0000\u0000\u0000\u0000\u0000\u0000\u0000\u0000\u0000\u0000\u0000\u0000\u0000\u0000\u0000\u0000\u0000\u0000\u0000\u0000\u0000\u0000\u0000\u0000\u0000\u0000\u0000\u0000\u0000\u0000\u0000\u0000\u0000\u0000\u0000\u0000\u0000\u0000\u0000\u0000\u0000\u0000\u0000\u0000\u0000\u0000\u0000\u0000\u0000\u0000\u0000\u0000\u0000\u0000\u0000\u0000\u0000\u0000\u0000\u0000\u0000\u0000\u0000\u0000\u0000\u0000\u0000\u0000\u0000\u0000",
        "\u0000\u0000\u0000\u0000\u0000\u0000\u0000\u0000\u0000\u0000\u0000\u0000\u0000\u0000\u0000\u0000\u0000\u0000\u0000\u0000\u0000\u0000\u0000\u0000\u0000\u0000\u0000\u0000\u0000\u0000\u0000\u0000\u0000\u0000\u0000\u0000\u0000\u0000\u0000\u0000\u0000\u0000\u0000\u0000\u0000\u0000\u0000\u0000\u0000\u0000\u0000\u0000\u0000\u0000\u0000\u0000\u0000\u0000\u0000\u0000\u0000\u0000\u0000\u0000\u0000\u0000\u0000\u0000\u0000\u0000\u0000\u0000\u0000\u0000\u0000\u0000\u0000\u0000\u0000\u0000\u0000\u0000\u0000\u0000\u0000\u0000\u0000\u0000\u0000\u0000\u0000\u0000\u0000\u0000\u0000\u0000\u0000\u0000\u0000\u0000\u0000\u0000\u0000\u0000\u0000\u0000\u0000\u0000\u0000\u0000\u0000\u0000\u0000\u0000\u0000\u0000\u0000\u0000\u0000\u0000\u0000\u0000\u0000\u0000\u0000\u0000\u0000\u0000",
        "\u0000\u0000\u0000\u0000\u0000\u0000\u0000\u0000\u0000\u0000\u0000\u0000\u0000\u0000\u0000\u0000\u0000\u0000\u0000\u0000\u0000\u0000\u0000\u0000\u0000\u0000\u0000\u0000\u0000\u0000\u0000\u0000\u0000\u0000\u0000\u0000\u0000\u0000\u0000\u0000\u0000\u0000\u0000\u0000\u0000\u0000\u0000\u0000\u0000\u0000\u0000\u0000\u0000\u0000\u0000\u0000\u0000\u0000\u0000\u0000\u0000\u0000\u0000\u0000\u0000\u0000\u0000\u0000\u0000\u0000\u0000\u0000\u0000\u0000\u0000\u0000\u0000\u0000\u0000\u0000\u0000\u0000\u0000\u0000\u0000\u0000\u0000\u0000\u0000\u0000\u0000\u0000\u0000\u0000\u0000\u0000\u0000\u0000\u0000\u0000\u0000\u0000\u0000\u0000\u0000\u0000\u0000\u0000\u0000\u0000\u0000\u0000\u0000\u0000\u0000\u0000\u0000\u0000\u0000\u0000\u0000\u0000\u0000\u0000\u0000\u0000\u0000\u0000",
        "\u0000\u0000\u0000\u0000\u0000\u0000\u0000\u0000\u0000\u0000\u0000\u0000\u0000\u0000\u0000\u0000\u0000\u0000\u0000\u0000\u0000\u0000\u0000\u0000\u0000\u0000\u0000\u0000\u0000\u0000\u0000\u0000\u0000\u0000\u0000\u0000\u0000\u0000\u0000\u0000\u0000\u0000\u0000\u0000\u0000\u0000\u0000\u0000\u0000\u0000\u0000\u0000\u0000\u0000\u0000\u0000\u0000\u0000\u0000\u0000\u0000\u0000\u0000\u0000\u0000\u0000\u0000\u0000\u0000\u0000\u0000\u0000\u0000\u0000\u0000\u0000\u0000\u0000\u0000\u0000\u0000\u0000\u0000\u0000\u0000\u0000\u0000\u0000\u0000\u0000\u0000\u0000\u0000\u0000\u0000\u0000\u0000\u0000\u0000\u0000\u0000\u0000\u0000\u0000\u0000\u0000\u0000\u0000\u0000\u0000\u0000\u0000\u0000\u0000\u0000\u0000\u0000\u0000\u0000\u0000\u0000\u0000\u0000\u0000\u0000\u0000",
        "\u0000\u0000\u0000\u0000\u0000\u0000\u0000\u0000\u0000\u0000\u0000\u0000\u0000\u0000\u0000\u0000\u0000\u0000\u0000\u0000\u0000\u0000\u0000\u0000\u0000\u0000\u0000\u0000\u0000\u0000\u0000\u0000\u0000\u0000\u0000\u0000\u0000\u0000\u0000\u0000\u0000\u0000\u0000\u0000\u0000\u0000\u0000\u0000\u0000\u0000\u0000\u0000\u0000\u0000\u0000\u0000\u0000\u0000\u0000\u0000\u0000\u0000\u0000\u0000\u0000\u0000\u0000\u0000\u0000\u0000\u0000\u0000\u0000\u0000\u0000\u0000\u0000\u0000\u0000\u0000\u0000\u0000\u0000\u0000\u0000\u0000\u0000\u0000\u0000\u0000\u0000\u0000\u0000\u0000\u0000\u0000\u0000\u0000\u0000\u0000\u0000\u0000\u0000\u0000\u0000\u0000\u0000\u0000\u0000\u0000\u0000\u0000\u0000\u0000\u0000\u0000\u0000\u0000\u0000\u0000\u0000\u0000\u0000\u0000\u0000\u0000",
        "\u0000\u0000\u0000\u0000\u0000\u0000\u0000\u0000\u0000\u0000\u0000\u0000\u0000\u0000\u0000\u0000\u0000\u0000\u0000\u0000\u0000\u0000\u0000\u0000\u0000\u0000\u0000\u0000\u0000\u0000\u0000\u0000\u0000\u0000\u0000\u0000\u0000\u0000\u0000\u0000\u0000\u0000\u0000\u0000\u0000\u0000\u0000\u0000\u0000\u0000\u0000\u0000\u0000\u0000\u0000\u0000\u0000\u0000\u0000\u0000\u0000\u0000\u0000\u0000\u0000\u0000\u0000\u0000\u0000\u0000\u0000\u0000\u0000\u0000\u0000\u0000\u0000\u0000\u0000\u0000\u0000\u0000\u0000\u0000\u0000\u0000\u0000\u0000\u0000\u0000\u0000\u0000\u0000\u0000\u0000\u0000\u0000\u0000\u0000\u0000\u0000\u0000\u0000\u0000\u0000\u0000\u0000\u0000\u0000\u0000\u0000\u0000\u0000\u0000\u0000\u0000\u0000\u0000\u0000\u0000\u0000\u0000\u0000\u0000\u0000\u0000\u0000\u0000",
        "\u0000\u0000\u0000\u0000\u0000\u0000\u0000\u0000\u0000\u0000\u0000\u0000\u0000\u0000\u0000\u0000\u0000\u0000\u0000\u0000\u0000\u0000\u0000\u0000\u0000\u0000\u0000\u0000\u0000\u0000\u0000\u0000\u0000\u0000\u0000\u0000\u0000\u0000\u0000\u0000\u0000\u0000\u0000\u0000\u0000\u0000\u0000\u0000\u0000\u0000\u0000\u0000\u0000\u0000\u0000\u0000\u0000\u0000\u0000\u0000\u0000\u0000\u0000\u0000\u0000\u0000\u0000\u0000\u0000\u0000\u0000\u0000\u0000\u0000\u0000\u0000\u0000\u0000\u0000\u0000\u0000\u0000\u0000\u0000\u0000\u0000\u0000\u0000\u0000\u0000\u0000\u0000\u0000\u0000\u0000\u0000\u0000\u0000\u0000\u0000\u0000\u0000\u0000\u0000\u0000\u0000\u0000\u0000\u0000\u0000\u0000\u0000\u0000\u0000\u0000\u0000\u0000\u0000\u0000\u0000\u0000\u0000\u0000\u0000",
        "\u0000\u0000\u0000\u0000\u0000\u0000\u0000\u0000\u0000\u0000\u0000\u0000\u0000\u0000\u0000\u0000\u0000\u0000\u0000\u0000\u0000\u0000\u0000\u0000\u0000\u0000\u0000\u0000\u0000\u0000\u0000\u0000\u0000\u0000\u0000\u0000\u0000\u0000\u0000\u0000\u0000\u0000\u0000\u0000\u0000\u0000\u0000\u0000\u0000\u0000\u0000\u0000\u0000\u0000\u0000\u0000\u0000\u0000\u0000\u0000\u0000\u0000\u0000\u0000\u0000\u0000\u0000\u0000\u0000\u0000\u0000\u0000\u0000\u0000\u0000\u0000\u0000\u0000\u0000\u0000\u0000\u0000\u0000\u0000\u0000\u0000\u0000\u0000\u0000\u0000\u0000\u0000\u0000\u0000\u0000\u0000\u0000\u0000\u0000\u0000\u0000\u0000\u0000\u0000\u0000\u0000\u0000\u0000\u0000\u0000\u0000\u0000\u0000\u0000\u0000\u0000\u0000\u0000\u0000\u0000\u0000\u0000\u0000\u0000",
        "\u0000\u0000\u0000\u0000\u0000\u0000\u0000\u0000\u0000\u0000\u0000\u0000\u0000\u0000\u0000\u0000\u0000\u0000\u0000\u0000\u0000\u0000\u0000\u0000\u0000\u0000\u0000\u0000\u0000\u0000\u0000\u0000\u0000\u0000\u0000\u0000\u0000\u0000\u0000\u0000\u0000\u0000\u0000\u0000\u0000\u0000\u0000\u0000\u0000\u0000\u0000\u0000\u0000\u0000\u0000\u0000\u0000\u0000\u0000\u0000\u0000\u0000\u0000\u0000\u0000\u0000\u0000\u0000\u0000\u0000\u0000\u0000\u0000\u0000\u0000\u0000\u0000\u0000\u0000\u0000\u0000\u0000\u0000\u0000\u0000\u0000\u0000\u0000\u0000\u0000\u0000\u0000\u0000\u0000\u0000\u0000\u0000\u0000\u0000\u0000\u0000\u0000\u0000\u0000\u0000\u0000\u0000\u0000\u0000\u0000\u0000\u0000\u0000\u0000\u0000\u0000\u0000\u0000\u0000\u0000\u0000\u0000",
        "\u0000\u0000\u0000\u0000\u0000\u0000\u0000\u0000\u0000\u0000\u0000\u0000\u0000\u0000\u0000\u0000\u0000\u0000\u0000\u0000\u0000\u0000\u0000\u0000\u0000\u0000\u0000\u0000\u0000\u0000\u0000\u0000\u0000\u0000\u0000\u0000\u0000\u0000\u0000\u0000\u0000\u0000\u0000\u0000\u0000\u0000\u0000\u0000\u0000\u0000\u0000\u0000\u0000\u0000\u0000\u0000\u0000\u0000\u0000\u0000\u0000\u0000\u0000\u0000\u0000\u0000\u0000\u0000\u0000\u0000\u0000\u0000\u0000\u0000\u0000\u0000\u0000\u0000\u0000\u0000\u0000\u0000\u0000\u0000\u0000\u0000\u0000\u0000\u0000\u0000\u0000\u0000\u0000\u0000\u0000\u0000\u0000\u0000\u0000\u0000\u0000\u0000\u0000\u0000\u0000\u0000\u0000\u0000\u0000\u0000\u0000\u0000\u0000\u0000\u0000\u0000\u0000\u0000\u0000\u0000\u0000\u0000\u0000\u0000",
