{
  "AcquisitionMatrixPE": 110,
  "AcquisitionNumber": 1,
  "AcquisitionTime": "15:28:2.802500",
  "BandwidthPerPixelPhaseEncode": 26.35,
  "BaseResolution": 110,
  "CoilString": "C:HEA;HEP",
  "ConversionSoftware": "dcm2niix",
  "ConversionSoftwareVersion": "v1.0.20190410  GCC6.3.0",
  "DerivedVendorReportedEchoSpacing": 0.000690012,
  "DeviceSerialNumber": "35422",
  "DwellTime": 2.6e-06,
  "EchoTime": 0.03,
  "EffectiveEchoSpacing": 0.000345006,
  "FlipAngle": 85,
  "ImageComments": "Unaliased_MB4_PE4_LB",
  "ImageOrientationPatientDICOM": [0.999782, 0.00167451, 0.0208077, 1.87642e-10, 0.996777, -0.0802164],
  "ImageType": [
    "ORIGINAL",
    "PRIMARY",
    "FMRI",
    "NONE",
    "MB",
    "ND",
    "MOSAIC"
],
  "ImagingFrequency": 123.177,
  "InPlanePhaseEncodingDirectionDICOM": "ROW",
  "InstitutionAddress": "kwanakro_599_C6F879_Seoul_KR_ZIP",
  "InstitutionName": "SNUBIC",
  "InstitutionalDepartmentName": "Department",
  "MRAcquisitionType": "2D",
  "MagneticFieldStrength": 3,
  "Manufacturer": "Siemens",
  "ManufacturersModelName": "TrioTim",
  "Modality": "MR",
  "MultibandAccelerationFactor": 4,
  "ParallelReductionFactorInPlane": 2,
  "PartialFourier": 1,
  "PatientPosition": "HFS",
  "PercentPhaseFOV": 100,
  "PhaseEncodingDirection": "i-",
  "PhaseEncodingSteps": 110,
  "PhaseResolution": 1,
  "PixelBandwidth": 1748,
  "ProcedureStepDescription": "SNU_SAVED",
  "ProtocolName": "WMGNG2_MB4_LR_SBRef",
  "PulseSequenceDetails": "%CustomerSeq%_cmrr_mbep2d_bold",
  "ReceiveCoilName": "32Ch_Head",
  "ReconMatrixPE": 110,
  "RefLinesPE": 32,
  "RepetitionTime": 1.5,
  "SAR": 0.157984,
  "ScanOptions": "FS",
  "ScanningSequence": "EP",
  "SequenceName": "epfid2d1_110",
  "SequenceVariant": "SK_SS",
  "SeriesDescription": "WMGNG2_MB4_LR_SBRef",
  "SeriesNumber": 10,
  "ShimSetting": [-4139, -29697, -1957, 616, -168, 237, -49, -53],
  "SliceThickness": 2.3,
  "SliceTiming": [0, 0.6575, 1.315, 0.47, 1.1275, 0.28, 0.94, 0.0925, 0.7525, 1.41, 0.5625, 1.2225, 0.375, 1.035, 0.1875, 0.845, 0, 0.6575, 1.315, 0.47, 1.1275, 0.28, 0.94, 0.0925, 0.7525, 1.41, 0.5625, 1.2225, 0.375, 1.035, 0.1875, 0.845, 0, 0.6575, 1.315, 0.47, 1.1275, 0.28, 0.94, 0.0925, 0.7525, 1.41, 0.5625, 1.2225, 0.375, 1.035, 0.1875, 0.845, 0, 0.6575, 1.315, 0.47, 1.1275, 0.28, 0.94, 0.0925, 0.7525, 1.41, 0.5625, 1.2225, 0.375, 1.035, 0.1875, 0.845],
  "SoftwareVersions": "syngo_MR_B17",
  "SpacingBetweenSlices": 2.3,
  "StationName": "MRC35422",
  "TaskName": "wmgng",
  "TotalReadoutTime": 0.0376057,
  "TxRefAmp": 414.771,
  "dcmmeta_affine": [
    [-2.326765537261963, 4.3669315386019036e-10, 0.04801240935921669, 132.15408325195312],
    [-0.0038970510940998793, 2.319772958755493, -0.18445752561092377, -117.70623016357422],
    [0.04842517152428627, 0.1866854429244995, 2.292088508605957, -49.07635498046875],
    [0.0, 0.0, 0.0, 1.0]
],
  "dcmmeta_reorient_transform": [
    [0.0, -1.0, 0.0, 109.0],
    [1.0, 0.0, 0.0, 0.0],
    [0.0, 0.0, 1.0, 0.0],
    [0.0, 0.0, 0.0, 1.0]
],
  "dcmmeta_shape": [110, 110, 64, 357],
  "dcmmeta_slice_dim": 2,
  "dcmmeta_version": 0.6,
  "global": {
    "const": {
      "AcquisitionMatrix": [0, 110, 110, 0],
      "AngioFlag": "N",
      "BitsAllocated": 16,
      "BitsStored": 12,
      "Columns": 880,
      "EchoNumbers": 1,
      "EchoTime": 30.0,
      "EchoTrainLength": 1,
      "FlipAngle": 85.0,
      "HighBit": 11,
      "ImageOrientationPatient": [0.99978209425731, 0.00167451416537, 0.02080769100047, 1.876416e-10, 0.99677747178096, -0.0802164057407],
      "ImagePositionPatient": [-1027.9588167184, -1029.7619725409, 24.502567011577],
      "ImageType": [
        "ORIGINAL",
        "PRIMARY",
        "FMRI",
        "NONE",
        "MB",
        "ND",
        "MOSAIC"
],
      "ImagedNucleus": "1H",
      "ImagingFrequency": 123.177242,
      "InPlanePhaseEncodingDirection": "ROW",
      "MRAcquisitionType": "2D",
      "MagneticFieldStrength": 3.0,
      "Manufacturer": "SIEMENS",
      "ManufacturerModelName": "TrioTim",
      "Modality": "MR",
      "NumberOfAverages": 1.0,
      "NumberOfPhaseEncodingSteps": 110,
      "PercentPhaseFieldOfView": 100.0,
      "PercentSampling": 100.0,
      "PerformedProcedureStepStartTime": "150407.703000",
      "PhotometricInterpretation": "MONOCHROME2",
      "PixelBandwidth": 1748.0,
      "PixelRepresentation": 0,
      "PixelSpacing": [2.3272726535797, 2.3272726535797],
      "ProtocolName": "WMGNG2_MB4_LR_SBRef",
      "ReferencedPerformedProcedureStepSequence": [
        {
          "ReferencedSOPClassUID": "1.2.840.10008.3.1.2.3.3",
          "ReferencedSOPInstanceUID": "1.3.12.2.1107.5.2.32.35422.30000020081723553528100000001"}
],
      "RepetitionTime": 1500.0,
      "Rows": 880,
      "SAR": 0.15798390577448,
      "SamplesPerPixel": 1,
      "ScanOptions": "FS",
      "ScanningSequence": "EP",
      "SequenceName": "epfid2d1_110",
      "SequenceVariant": [
        "SK",
        "SS"
],
      "SeriesDescription": "WMGNG2_MB4_LR_SBRef",
      "SeriesNumber": 10,
      "SeriesTime": "153317.187000",
      "SliceLocation": -36.708919263423,
      "SliceThickness": 2.2999999523163,
      "SmallestImagePixelValue": 0,
      "SoftwareVersions": "syngo MR B17",
      "SpacingBetweenSlices": 2.2999999668636,
      "SpecificCharacterSet": "ISO_IR 100",
      "StudyID": "1",
      "StudyTime": "150407.656000",
      "TransmitCoilName": "Body",
      "VariableFlipAngleFlag": "N",
      "WindowCenterWidthExplanation": "Algo1",
      "dBdt": 0.0},
    "slices": {}
  },
  "time": {
    "samples": {
      "AcquisitionNumber": [1, 2, 3, 4, 5, 6, 7, 8, 9, 10, 11, 12, 13, 14, 15, 16, 17, 18, 19, 20, 21, 22, 23, 24, 25, 26, 27, 28, 29, 30, 31, 32, 33, 34, 35, 36, 37, 38, 39, 40, 41, 42, 43, 44, 45, 46, 47, 48, 49, 50, 51, 52, 53, 54, 55, 56, 57, 58, 59, 60, 61, 62, 63, 64, 65, 66, 67, 68, 69, 70, 71, 72, 73, 74, 75, 76, 77, 78, 79, 80, 81, 82, 83, 84, 85, 86, 87, 88, 89, 90, 91, 92, 93, 94, 95, 96, 97, 98, 99, 100, 101, 102, 103, 104, 105, 106, 107, 108, 109, 110, 111, 112, 113, 114, 115, 116, 117, 118, 119, 120, 121, 122, 123, 124, 125, 126, 127, 128, 129, 130, 131, 132, 133, 134, 135, 136, 137, 138, 139, 140, 141, 142, 143, 144, 145, 146, 147, 148, 149, 150, 151, 152, 153, 154, 155, 156, 157, 158, 159, 160, 161, 162, 163, 164, 165, 166, 167, 168, 169, 170, 171, 172, 173, 174, 175, 176, 177, 178, 179, 180, 181, 182, 183, 184, 185, 186, 187, 188, 189, 190, 191, 192, 193, 194, 195, 196, 197, 198, 199, 200, 201, 202, 203, 204, 205, 206, 207, 208, 209, 210, 211, 212, 213, 214, 215, 216, 217, 218, 219, 220, 221, 222, 223, 224, 225, 226, 227, 228, 229, 230, 231, 232, 233, 234, 235, 236, 237, 238, 239, 240, 241, 242, 243, 244, 245, 246, 247, 248, 249, 250, 251, 252, 253, 254, 255, 256, 257, 258, 259, 260, 261, 262, 263, 264, 265, 266, 267, 268, 269, 270, 271, 272, 273, 274, 275, 276, 277, 278, 279, 280, 281, 282, 283, 284, 285, 286, 287, 288, 289, 290, 291, 292, 293, 294, 295, 296, 297, 298, 299, 300, 301, 302, 303, 304, 305, 306, 307, 308, 309, 310, 311, 312, 313, 314, 315, 316, 317, 318, 319, 320, 321, 322, 323, 324, 325, 326, 327, 328, 329, 330, 331, 332, 333, 334, 335, 336, 337, 338, 339, 340, 341, 342, 343, 344, 345, 346, 347, 348, 349, 350, 351, 352, 353, 354, 355, 356, 357],
      "AcquisitionTime": ["152802.802500", "152804.307500", "152805.812500", "152807.320000", "152808.825000", "152810.332500", "152811.837500", "152813.342500", "152814.850000", "152816.355000", "152817.862500", "152819.367500", "152820.872500", "152822.380000", "152823.885000", "152825.392500", "152826.897500", "152828.402500", "152829.910000", "152831.415000", "152832.922500", "152834.427500", "152835.935000", "152837.440000", "152838.945000", "152840.452500", "152841.957500", "152843.465000", "152844.970000", "152846.475000", "152847.982500", "152849.487500", "152850.995000", "152852.500000", "152854.005000", "152855.512500", "152857.017500", "152858.525000", "152900.030000", "152901.535000", "152903.042500", "152904.547500", "152906.055000", "152907.560000", "152909.067500", "152910.572500", "152912.077500", "152913.585000", "152915.090000", "152916.597500", "152918.102500", "152919.607500", "152921.115000", "152922.620000", "152924.127500", "152925.632500", "152927.137500", "152928.645000", "152930.150000", "152931.657500", "152933.162500", "152934.667500", "152936.175000", "152937.680000", "152939.187500", "152940.692500", "152942.200000", "152943.705000", "152945.210000", "152946.717500", "152948.222500", "152949.730000", "152951.235000", "152952.740000", "152954.247500", "152955.752500", "152957.260000", "152958.765000", "153000.270000", "153001.777500", "153003.282500", "153004.790000", "153006.295000", "153007.802500", "153009.307500", "153010.812500", "153012.320000", "153013.825000", "153015.332500", "153016.837500", "153018.342500", "153019.850000", "153021.355000", "153022.862500", "153024.367500", "153025.872500", "153027.380000", "153028.885000", "153030.392500", "153031.897500", "153033.402500", "153034.910000", "153036.415000", "153037.922500", "153039.427500", "153040.935000", "153042.440000", "153043.945000", "153045.452500", "153046.957500", "153048.465000", "153049.970000", "153051.475000", "153052.982500", "153054.487500", "153055.995000", "153057.500000", "153059.005000", "153100.512500", "153102.017500", "153103.525000", "153105.030000", "153106.535000", "153108.042500", "153109.547500", "153111.055000", "153112.560000", "153114.067500", "153115.572500", "153117.077500", "153118.585000", "153120.090000", "153121.597500", "153123.102500", "153124.607500", "153126.115000", "153127.620000", "153129.127500", "153130.632500", "153132.137500", "153133.645000", "153135.150000", "153136.657500", "153138.162500", "153139.667500", "153141.175000", "153142.680000", "153144.187500", "153145.692500", "153147.200000", "153148.705000", "153150.210000", "153151.717500", "153153.222500", "153154.730000", "153156.235000", "153157.740000", "153159.247500", "153200.752500", "153202.260000", "153203.765000", "153205.270000", "153206.777500", "153208.282500", "153209.790000", "153211.295000", "153212.802500", "153214.307500", "153215.812500", "153217.320000", "153218.825000", "153220.332500", "153221.837500", "153223.342500", "153224.850000", "153226.355000", "153227.862500", "153229.367500", "153230.872500", "153232.380000", "153233.885000", "153235.392500", "153236.897500", "153238.402500", "153239.910000", "153241.415000", "153242.922500", "153244.427500", "153245.935000", "153247.440000", "153248.945000", "153250.452500", "153251.957500", "153253.465000", "153254.970000", "153256.475000", "153257.982500", "153259.487500", "153300.995000", "153302.500000", "153304.005000", "153305.512500", "153307.017500", "153308.525000", "153310.030000", "153311.535000", "153313.042500", "153314.547500", "153316.055000", "153317.560000", "153319.067500", "153320.572500", "153322.077500", "153323.585000", "153325.090000", "153326.597500", "153328.102500", "153329.607500", "153331.115000", "153332.620000", "153334.127500", "153335.632500", "153337.137500", "153338.645000", "153340.150000", "153341.657500", "153343.162500", "153344.667500", "153346.175000", "153347.680000", "153349.187500", "153350.692500", "153352.200000", "153353.705000", "153355.210000", "153356.717500", "153358.222500", "153359.730000", "153401.235000", "153402.740000", "153404.247500", "153405.752500", "153407.260000", "153408.765000", "153410.270000", "153411.777500", "153413.282500", "153414.790000", "153416.295000", "153417.802500", "153419.307500", "153420.812500", "153422.320000", "153423.825000", "153425.332500", "153426.837500", "153428.342500", "153429.850000", "153431.355000", "153432.862500", "153434.367500", "153435.872500", "153437.380000", "153438.885000", "153440.392500", "153441.897500", "153443.402500", "153444.910000", "153446.415000", "153447.922500", "153449.427500", "153450.935000", "153452.440000", "153453.945000", "153455.452500", "153456.957500", "153458.465000", "153459.970000", "153501.475000", "153502.982500", "153504.487500", "153505.995000", "153507.500000", "153509.005000", "153510.512500", "153512.017500", "153513.525000", "153515.030000", "153516.535000", "153518.042500", "153519.547500", "153521.055000", "153522.560000", "153524.067500", "153525.572500", "153527.077500", "153528.585000", "153530.090000", "153531.597500", "153533.102500", "153534.607500", "153536.115000", "153537.620000", "153539.127500", "153540.632500", "153542.137500", "153543.645000", "153545.150000", "153546.657500", "153548.162500", "153549.667500", "153551.175000", "153552.680000", "153554.187500", "153555.692500", "153557.200000", "153558.705000", "153600.210000", "153601.717500", "153603.222500", "153604.730000", "153606.235000", "153607.740000", "153609.247500", "153610.752500", "153612.260000", "153613.765000", "153615.270000", "153616.777500", "153618.282500", "153619.790000", "153621.295000", "153622.802500", "153624.307500", "153625.812500", "153627.320000", "153628.825000", "153630.332500", "153631.837500", "153633.342500", "153634.850000", "153636.355000", "153637.862500", "153639.367500", "153640.872500", "153642.380000", "153643.885000", "153645.392500", "153646.897500", "153648.402500", "153649.910000", "153651.415000", "153652.922500", "153654.427500", "153655.935000", "153657.440000", "153658.945000"],
      "ContentTime": ["153317.187000", "153317.187000", "153317.187000", "153317.203000", "153317.203000", "153317.203000", "153317.203000", "153417.187000", "153417.187000", "153417.187000", "153417.187000", "153417.187000", "153417.203000", "153417.203000", "153417.203000", "153417.203000", "153417.203000", "153417.203000", "153417.218000", "153417.218000", "153417.218000", "153417.218000", "153417.218000", "153417.218000", "153417.234000", "153417.234000", "153417.234000", "153417.234000", "153417.234000", "153417.234000", "153417.234000", "153417.234000", "153417.234000", "153517.187000", "153517.187000", "153517.187000", "153517.187000", "153517.187000", "153517.187000", "153517.203000", "153517.203000", "153517.203000", "153517.203000", "153517.203000", "153517.203000", "153517.203000", "153517.203000", "153517.203000", "153517.218000", "153517.218000", "153517.218000", "153517.218000", "153517.218000", "153517.218000", "153517.218000", "153517.234000", "153517.234000", "153517.234000", "153517.250000", "153617.187000", "153617.187000", "153617.187000", "153617.187000", "153617.203000", "153617.203000", "153617.203000", "153617.203000", "153617.203000", "153617.203000", "153617.203000", "153617.218000", "153617.218000", "153617.218000", "153617.218000", "153617.218000", "153617.218000", "153617.218000", "153617.218000", "153617.234000", "153617.234000", "153617.234000", "153617.234000", "153617.234000", "153617.250000", "153617.250000", "153717.187000", "153717.187000", "153717.187000", "153717.187000", "153717.187000", "153717.187000", "153717.203000", "153717.203000", "153717.203000", "153717.203000", "153717.203000", "153717.203000", "153717.203000", "153717.203000", "153717.218000", "153717.218000", "153717.218000", "153717.218000", "153717.218000", "153717.218000", "153717.218000", "153717.218000", "153717.218000", "153717.234000", "153717.234000", "153717.234000", "153817.187000", "153817.187000", "153817.187000", "153817.203000", "153817.203000", "153817.203000", "153817.203000", "153817.203000", "153817.203000", "153817.218000", "153817.218000", "153817.218000", "153817.218000", "153817.218000", "153817.218000", "153817.218000", "153817.218000", "153817.234000", "153817.234000", "153817.234000", "153817.234000", "153817.234000", "153817.234000", "153817.234000", "153817.234000", "153817.250000", "153917.187000", "153917.187000", "153917.187000", "153917.187000", "153917.187000", "153917.203000", "153917.203000", "153917.203000", "153917.203000", "153917.203000", "153917.203000", "153917.203000", "153917.203000", "153917.203000", "153917.218000", "153917.218000", "153917.218000", "153917.218000", "153917.218000", "153917.218000", "153917.218000", "153917.218000", "153917.218000", "153917.234000", "153917.234000", "153917.234000", "154017.187000", "154017.187000", "154017.187000", "154017.187000", "154017.187000", "154017.203000", "154017.203000", "154017.203000", "154017.203000", "154017.203000", "154017.203000", "154017.203000", "154017.203000", "154017.203000", "154017.218000", "154017.218000", "154017.218000", "154017.218000", "154017.218000", "154017.234000", "154017.234000", "154017.234000", "154017.234000", "154017.234000", "154017.234000", "154017.234000", "154017.250000", "154117.187000", "154117.187000", "154117.187000", "154117.187000", "154117.187000", "154117.187000", "154117.203000", "154117.203000", "154117.203000", "154117.203000", "154117.203000", "154117.203000", "154117.203000", "154117.218000", "154117.218000", "154117.218000", "154117.218000", "154117.218000", "154117.218000", "154117.218000", "154117.234000", "154117.234000", "154117.234000", "154117.234000", "154117.234000", "154117.234000", "154137.187000", "154137.187000", "154137.187000", "154137.187000", "154137.187000", "154137.203000", "154137.203000", "154137.203000", "154237.187000", "154237.187000", "154237.187000", "154237.187000", "154237.203000", "154237.203000", "154237.203000", "154237.203000", "154237.203000", "154237.203000", "154237.218000", "154237.218000", "154237.218000", "154237.218000", "154237.218000", "154237.218000", "154237.234000", "154237.234000", "154237.234000", "154237.234000", "154237.234000", "154237.250000", "154237.250000", "154237.250000", "154237.250000", "154237.250000", "154337.187000", "154337.187000", "154337.187000", "154337.187000", "154337.187000", "154337.203000", "154337.203000", "154337.203000", "154337.203000", "154337.203000", "154337.203000", "154337.203000", "154337.203000", "154337.203000", "154337.218000", "154337.218000", "154337.218000", "154337.218000", "154337.218000", "154337.218000", "154337.218000", "154337.234000", "154337.234000", "154337.234000", "154337.234000", "154337.234000", "154437.187000", "154437.187000", "154437.187000", "154437.203000", "154437.203000", "154437.203000", "154437.203000", "154437.203000", "154437.203000", "154437.218000", "154437.218000", "154437.218000", "154437.218000", "154437.218000", "154437.218000", "154437.218000", "154437.218000", "154437.218000", "154437.234000", "154437.234000", "154437.234000", "154437.234000", "154437.234000", "154437.234000", "154437.234000", "154437.234000", "154537.187000", "154537.187000", "154537.187000", "154537.187000", "154537.187000", "154537.203000", "154537.203000", "154537.203000", "154537.203000", "154537.203000", "154537.203000", "154537.203000", "154537.203000", "154537.203000", "154537.218000", "154537.218000", "154537.218000", "154537.218000", "154537.218000", "154537.234000", "154537.234000", "154537.234000", "154537.234000", "154537.234000", "154537.234000", "154537.234000", "154637.187000", "154637.187000", "154637.187000", "154637.187000", "154637.187000", "154637.203000", "154637.203000", "154637.203000", "154637.203000", "154637.203000", "154637.218000", "154637.218000", "154637.218000", "154637.218000", "154637.218000", "154637.218000", "154637.218000", "154637.218000", "154637.234000", "154637.234000", "154637.234000", "154637.234000", "154637.234000", "154637.234000", "154637.234000", "154637.234000", "154643.265000", "154643.265000", "154643.265000"],
      "DataSetTrailingPadding": [
        "\u0000\u0000\u0000\u0000\u0000\u0000\u0000\u0000\u0000\u0000\u0000\u0000\u0000\u0000\u0000\u0000\u0000\u0000\u0000\u0000\u0000\u0000\u0000\u0000\u0000\u0000\u0000\u0000\u0000\u0000\u0000\u0000\u0000\u0000\u0000\u0000\u0000\u0000\u0000\u0000\u0000\u0000\u0000\u0000\u0000\u0000\u0000\u0000\u0000\u0000\u0000\u0000\u0000\u0000\u0000\u0000\u0000\u0000\u0000\u0000\u0000\u0000\u0000\u0000\u0000\u0000",
        "\u0000\u0000\u0000\u0000\u0000\u0000\u0000\u0000\u0000\u0000\u0000\u0000\u0000\u0000\u0000\u0000\u0000\u0000\u0000\u0000\u0000\u0000\u0000\u0000\u0000\u0000\u0000\u0000\u0000\u0000\u0000\u0000\u0000\u0000\u0000\u0000\u0000\u0000\u0000\u0000\u0000\u0000\u0000\u0000\u0000\u0000\u0000\u0000\u0000\u0000\u0000\u0000\u0000\u0000\u0000\u0000\u0000\u0000\u0000\u0000\u0000\u0000",
        "\u0000\u0000\u0000\u0000\u0000\u0000\u0000\u0000\u0000\u0000\u0000\u0000\u0000\u0000\u0000\u0000\u0000\u0000\u0000\u0000\u0000\u0000\u0000\u0000\u0000\u0000\u0000\u0000\u0000\u0000\u0000\u0000\u0000\u0000\u0000\u0000\u0000\u0000\u0000\u0000\u0000\u0000\u0000\u0000\u0000\u0000\u0000\u0000\u0000\u0000\u0000\u0000\u0000\u0000\u0000\u0000\u0000\u0000\u0000\u0000\u0000\u0000",
        "\u0000\u0000\u0000\u0000\u0000\u0000\u0000\u0000\u0000\u0000\u0000\u0000\u0000\u0000\u0000\u0000\u0000\u0000\u0000\u0000\u0000\u0000\u0000\u0000\u0000\u0000\u0000\u0000\u0000\u0000\u0000\u0000\u0000\u0000\u0000\u0000\u0000\u0000\u0000\u0000\u0000\u0000\u0000\u0000\u0000\u0000\u0000\u0000\u0000\u0000\u0000\u0000\u0000\u0000\u0000\u0000\u0000\u0000\u0000\u0000\u0000\u0000",
        "\u0000\u0000\u0000\u0000\u0000\u0000\u0000\u0000\u0000\u0000\u0000\u0000\u0000\u0000\u0000\u0000\u0000\u0000\u0000\u0000\u0000\u0000\u0000\u0000\u0000\u0000\u0000\u0000\u0000\u0000\u0000\u0000\u0000\u0000\u0000\u0000\u0000\u0000\u0000\u0000\u0000\u0000\u0000\u0000\u0000\u0000\u0000\u0000\u0000\u0000\u0000\u0000\u0000\u0000\u0000\u0000\u0000\u0000\u0000\u0000\u0000\u0000\u0000\u0000",
        "\u0000\u0000\u0000\u0000\u0000\u0000\u0000\u0000\u0000\u0000\u0000\u0000\u0000\u0000\u0000\u0000\u0000\u0000\u0000\u0000\u0000\u0000\u0000\u0000\u0000\u0000\u0000\u0000\u0000\u0000\u0000\u0000\u0000\u0000\u0000\u0000\u0000\u0000\u0000\u0000\u0000\u0000\u0000\u0000\u0000\u0000\u0000\u0000\u0000\u0000\u0000\u0000\u0000\u0000\u0000\u0000\u0000\u0000\u0000\u0000\u0000\u0000\u0000\u0000",
        "\u0000\u0000\u0000\u0000\u0000\u0000\u0000\u0000\u0000\u0000\u0000\u0000\u0000\u0000\u0000\u0000\u0000\u0000\u0000\u0000\u0000\u0000\u0000\u0000\u0000\u0000\u0000\u0000\u0000\u0000\u0000\u0000\u0000\u0000\u0000\u0000\u0000\u0000\u0000\u0000\u0000\u0000\u0000\u0000\u0000\u0000\u0000\u0000\u0000\u0000\u0000\u0000\u0000\u0000\u0000\u0000\u0000\u0000\u0000\u0000\u0000\u0000",
        "\u0000\u0000\u0000\u0000\u0000\u0000\u0000\u0000\u0000\u0000\u0000\u0000\u0000\u0000\u0000\u0000\u0000\u0000\u0000\u0000\u0000\u0000\u0000\u0000\u0000\u0000\u0000\u0000\u0000\u0000\u0000\u0000\u0000\u0000\u0000\u0000\u0000\u0000\u0000\u0000\u0000\u0000\u0000\u0000\u0000\u0000\u0000\u0000\u0000\u0000\u0000\u0000\u0000\u0000\u0000\u0000\u0000\u0000\u0000\u0000\u0000\u0000",
        "\u0000\u0000\u0000\u0000\u0000\u0000\u0000\u0000\u0000\u0000\u0000\u0000\u0000\u0000\u0000\u0000\u0000\u0000\u0000\u0000\u0000\u0000\u0000\u0000\u0000\u0000\u0000\u0000\u0000\u0000\u0000\u0000\u0000\u0000\u0000\u0000\u0000\u0000\u0000\u0000\u0000\u0000\u0000\u0000\u0000\u0000\u0000\u0000\u0000\u0000\u0000\u0000\u0000\u0000\u0000\u0000\u0000\u0000\u0000\u0000\u0000\u0000",
        "\u0000\u0000\u0000\u0000\u0000\u0000\u0000\u0000\u0000\u0000\u0000\u0000\u0000\u0000\u0000\u0000\u0000\u0000\u0000\u0000\u0000\u0000\u0000\u0000\u0000\u0000\u0000\u0000\u0000\u0000\u0000\u0000\u0000\u0000\u0000\u0000\u0000\u0000\u0000\u0000\u0000\u0000\u0000\u0000\u0000\u0000\u0000\u0000\u0000\u0000\u0000\u0000\u0000\u0000\u0000\u0000\u0000\u0000\u0000\u0000",
        "\u0000\u0000\u0000\u0000\u0000\u0000\u0000\u0000\u0000\u0000\u0000\u0000\u0000\u0000\u0000\u0000\u0000\u0000\u0000\u0000\u0000\u0000\u0000\u0000\u0000\u0000\u0000\u0000\u0000\u0000\u0000\u0000\u0000\u0000\u0000\u0000\u0000\u0000\u0000\u0000\u0000\u0000\u0000\u0000\u0000\u0000\u0000\u0000\u0000\u0000\u0000\u0000\u0000\u0000\u0000\u0000\u0000\u0000\u0000\u0000",
        "\u0000\u0000\u0000\u0000\u0000\u0000\u0000\u0000\u0000\u0000\u0000\u0000\u0000\u0000\u0000\u0000\u0000\u0000\u0000\u0000\u0000\u0000\u0000\u0000\u0000\u0000\u0000\u0000\u0000\u0000\u0000\u0000\u0000\u0000\u0000\u0000\u0000\u0000\u0000\u0000\u0000\u0000\u0000\u0000\u0000\u0000\u0000\u0000\u0000\u0000\u0000\u0000\u0000\u0000\u0000\u0000\u0000\u0000",
        "\u0000\u0000\u0000\u0000\u0000\u0000\u0000\u0000\u0000\u0000\u0000\u0000\u0000\u0000\u0000\u0000\u0000\u0000\u0000\u0000\u0000\u0000\u0000\u0000\u0000\u0000\u0000\u0000\u0000\u0000\u0000\u0000\u0000\u0000\u0000\u0000\u0000\u0000\u0000\u0000\u0000\u0000\u0000\u0000\u0000\u0000\u0000\u0000\u0000\u0000\u0000\u0000\u0000\u0000\u0000\u0000\u0000\u0000",
        "\u0000\u0000\u0000\u0000\u0000\u0000\u0000\u0000\u0000\u0000\u0000\u0000\u0000\u0000\u0000\u0000\u0000\u0000\u0000\u0000\u0000\u0000\u0000\u0000\u0000\u0000\u0000\u0000\u0000\u0000\u0000\u0000\u0000\u0000\u0000\u0000\u0000\u0000\u0000\u0000\u0000\u0000\u0000\u0000\u0000\u0000\u0000\u0000\u0000\u0000\u0000\u0000\u0000\u0000\u0000\u0000\u0000\u0000",
        "\u0000\u0000\u0000\u0000\u0000\u0000\u0000\u0000\u0000\u0000\u0000\u0000\u0000\u0000\u0000\u0000\u0000\u0000\u0000\u0000\u0000\u0000\u0000\u0000\u0000\u0000\u0000\u0000\u0000\u0000\u0000\u0000\u0000\u0000\u0000\u0000\u0000\u0000\u0000\u0000\u0000\u0000\u0000\u0000\u0000\u0000\u0000\u0000\u0000\u0000\u0000\u0000\u0000\u0000\u0000\u0000\u0000\u0000\u0000\u0000",
        "\u0000\u0000\u0000\u0000\u0000\u0000\u0000\u0000\u0000\u0000\u0000\u0000\u0000\u0000\u0000\u0000\u0000\u0000\u0000\u0000\u0000\u0000\u0000\u0000\u0000\u0000\u0000\u0000\u0000\u0000\u0000\u0000\u0000\u0000\u0000\u0000\u0000\u0000\u0000\u0000\u0000\u0000\u0000\u0000\u0000\u0000\u0000\u0000\u0000\u0000\u0000\u0000\u0000\u0000\u0000\u0000\u0000\u0000\u0000\u0000",
        "\u0000\u0000\u0000\u0000\u0000\u0000\u0000\u0000\u0000\u0000\u0000\u0000\u0000\u0000\u0000\u0000\u0000\u0000\u0000\u0000\u0000\u0000\u0000\u0000\u0000\u0000\u0000\u0000\u0000\u0000\u0000\u0000\u0000\u0000\u0000\u0000\u0000\u0000\u0000\u0000\u0000\u0000\u0000\u0000\u0000\u0000\u0000\u0000\u0000\u0000\u0000\u0000\u0000\u0000\u0000\u0000\u0000\u0000",
        "\u0000\u0000\u0000\u0000\u0000\u0000\u0000\u0000\u0000\u0000\u0000\u0000\u0000\u0000\u0000\u0000\u0000\u0000\u0000\u0000\u0000\u0000\u0000\u0000\u0000\u0000\u0000\u0000\u0000\u0000\u0000\u0000\u0000\u0000\u0000\u0000\u0000\u0000\u0000\u0000\u0000\u0000\u0000\u0000\u0000\u0000\u0000\u0000\u0000\u0000\u0000\u0000\u0000\u0000\u0000\u0000\u0000\u0000",
        "\u0000\u0000\u0000\u0000\u0000\u0000\u0000\u0000\u0000\u0000\u0000\u0000\u0000\u0000\u0000\u0000\u0000\u0000\u0000\u0000\u0000\u0000\u0000\u0000\u0000\u0000\u0000\u0000\u0000\u0000\u0000\u0000\u0000\u0000\u0000\u0000\u0000\u0000\u0000\u0000\u0000\u0000\u0000\u0000\u0000\u0000\u0000\u0000\u0000\u0000\u0000\u0000\u0000\u0000\u0000\u0000\u0000\u0000\u0000\u0000",
        "\u0000\u0000\u0000\u0000\u0000\u0000\u0000\u0000\u0000\u0000\u0000\u0000\u0000\u0000\u0000\u0000\u0000\u0000\u0000\u0000\u0000\u0000\u0000\u0000\u0000\u0000\u0000\u0000\u0000\u0000\u0000\u0000\u0000\u0000\u0000\u0000\u0000\u0000\u0000\u0000\u0000\u0000\u0000\u0000\u0000\u0000\u0000\u0000\u0000\u0000\u0000\u0000\u0000\u0000\u0000\u0000\u0000\u0000\u0000\u0000",
        "\u0000\u0000\u0000\u0000\u0000\u0000\u0000\u0000\u0000\u0000\u0000\u0000\u0000\u0000\u0000\u0000\u0000\u0000\u0000\u0000\u0000\u0000\u0000\u0000\u0000\u0000\u0000\u0000\u0000\u0000\u0000\u0000\u0000\u0000\u0000\u0000\u0000\u0000\u0000\u0000\u0000\u0000\u0000\u0000\u0000\u0000\u0000\u0000\u0000\u0000\u0000\u0000\u0000\u0000\u0000\u0000\u0000\u0000\u0000\u0000",
        "\u0000\u0000\u0000\u0000\u0000\u0000\u0000\u0000\u0000\u0000\u0000\u0000\u0000\u0000\u0000\u0000\u0000\u0000\u0000\u0000\u0000\u0000\u0000\u0000\u0000\u0000\u0000\u0000\u0000\u0000\u0000\u0000\u0000\u0000\u0000\u0000\u0000\u0000\u0000\u0000\u0000\u0000\u0000\u0000\u0000\u0000\u0000\u0000\u0000\u0000\u0000\u0000\u0000\u0000\u0000\u0000\u0000\u0000",
        "\u0000\u0000\u0000\u0000\u0000\u0000\u0000\u0000\u0000\u0000\u0000\u0000\u0000\u0000\u0000\u0000\u0000\u0000\u0000\u0000\u0000\u0000\u0000\u0000\u0000\u0000\u0000\u0000\u0000\u0000\u0000\u0000\u0000\u0000\u0000\u0000\u0000\u0000\u0000\u0000\u0000\u0000\u0000\u0000\u0000\u0000\u0000\u0000\u0000\u0000\u0000\u0000\u0000\u0000\u0000\u0000\u0000\u0000\u0000\u0000",
        "\u0000\u0000\u0000\u0000\u0000\u0000\u0000\u0000\u0000\u0000\u0000\u0000\u0000\u0000\u0000\u0000\u0000\u0000\u0000\u0000\u0000\u0000\u0000\u0000\u0000\u0000\u0000\u0000\u0000\u0000\u0000\u0000\u0000\u0000\u0000\u0000\u0000\u0000\u0000\u0000\u0000\u0000\u0000\u0000\u0000\u0000\u0000\u0000\u0000\u0000\u0000\u0000\u0000\u0000\u0000\u0000\u0000\u0000\u0000\u0000",
        "\u0000\u0000\u0000\u0000\u0000\u0000\u0000\u0000\u0000\u0000\u0000\u0000\u0000\u0000\u0000\u0000\u0000\u0000\u0000\u0000\u0000\u0000\u0000\u0000\u0000\u0000\u0000\u0000\u0000\u0000\u0000\u0000\u0000\u0000\u0000\u0000\u0000\u0000\u0000\u0000\u0000\u0000\u0000\u0000\u0000\u0000\u0000\u0000\u0000\u0000\u0000\u0000\u0000\u0000\u0000\u0000\u0000\u0000\u0000\u0000",
        "\u0000\u0000\u0000\u0000\u0000\u0000\u0000\u0000\u0000\u0000\u0000\u0000\u0000\u0000\u0000\u0000\u0000\u0000\u0000\u0000\u0000\u0000\u0000\u0000\u0000\u0000\u0000\u0000\u0000\u0000\u0000\u0000\u0000\u0000\u0000\u0000\u0000\u0000\u0000\u0000\u0000\u0000\u0000\u0000\u0000\u0000\u0000\u0000\u0000\u0000\u0000\u0000\u0000\u0000\u0000\u0000\u0000\u0000\u0000\u0000",
        "\u0000\u0000\u0000\u0000\u0000\u0000\u0000\u0000\u0000\u0000\u0000\u0000\u0000\u0000\u0000\u0000\u0000\u0000\u0000\u0000\u0000\u0000\u0000\u0000\u0000\u0000\u0000\u0000\u0000\u0000\u0000\u0000\u0000\u0000\u0000\u0000\u0000\u0000\u0000\u0000\u0000\u0000\u0000\u0000\u0000\u0000\u0000\u0000\u0000\u0000\u0000\u0000\u0000\u0000\u0000\u0000\u0000\u0000",
        "\u0000\u0000\u0000\u0000\u0000\u0000\u0000\u0000\u0000\u0000\u0000\u0000\u0000\u0000\u0000\u0000\u0000\u0000\u0000\u0000\u0000\u0000\u0000\u0000\u0000\u0000\u0000\u0000\u0000\u0000\u0000\u0000\u0000\u0000\u0000\u0000\u0000\u0000\u0000\u0000\u0000\u0000\u0000\u0000\u0000\u0000\u0000\u0000\u0000\u0000\u0000\u0000\u0000\u0000\u0000\u0000\u0000\u0000",
