{
  "AcquisitionMatrixPE": 110,
  "AcquisitionNumber": 1,
  "AcquisitionTime": "16:32:21.435000",
  "BandwidthPerPixelPhaseEncode": 26.35,
  "BaseResolution": 110,
  "CoilString": "C:HEA;HEP",
  "ConversionSoftware": "dcm2niix",
  "ConversionSoftwareVersion": "v1.0.20190410  GCC6.3.0",
  "DerivedVendorReportedEchoSpacing": 0.000690012,
  "DeviceSerialNumber": "35422",
  "DwellTime": 2.6e-06,
  "EchoTime": 0.03,
  "EffectiveEchoSpacing": 0.000345006,
  "FlipAngle": 85,
  "ImageComments": "Unaliased_MB4_PE4_LB",
  "ImageOrientationPatientDICOM": [0.999997, -0.000383654, -0.00238021, 2.12993e-10, 0.987258, -0.159131],
  "ImageType": [
    "ORIGINAL",
    "PRIMARY",
    "FMRI",
    "NONE",
    "MB",
    "ND",
    "MOSAIC"
],
  "ImagingFrequency": 123.177,
  "InPlanePhaseEncodingDirectionDICOM": "ROW",
  "InstitutionAddress": "kwanakro_599_C4F276_Seoul_KR_ZIP",
  "InstitutionName": "SNUBIC",
  "InstitutionalDepartmentName": "Department",
  "MRAcquisitionType": "2D",
  "MagneticFieldStrength": 3,
  "Manufacturer": "Siemens",
  "ManufacturersModelName": "TrioTim",
  "Modality": "MR",
  "MultibandAccelerationFactor": 4,
  "ParallelReductionFactorInPlane": 2,
  "PartialFourier": 1,
  "PatientPosition": "HFS",
  "PercentPhaseFOV": 100,
  "PhaseEncodingDirection": "i-",
  "PhaseEncodingSteps": 110,
  "PhaseResolution": 1,
  "PixelBandwidth": 1748,
  "ProcedureStepDescription": "SNU_SAVED",
  "ProtocolName": "WMGNG1_MB4_LR_SBRef",
  "PulseSequenceDetails": "%CustomerSeq%_cmrr_mbep2d_bold",
  "ReceiveCoilName": "32Ch_Head",
  "ReconMatrixPE": 110,
  "RefLinesPE": 32,
  "RepetitionTime": 1.5,
  "SAR": 0.109492,
  "ScanOptions": "FS",
  "ScanningSequence": "EP",
  "SequenceName": "epfid2d1_110",
  "SequenceVariant": "SK_SS",
  "SeriesDescription": "WMGNG1_MB4_LR_SBRef",
  "SeriesNumber": 13,
  "ShimSetting": [-4199, -29763, -2146, 933, -159, 197, -187, -40],
  "SliceThickness": 2.3,
  "SliceTiming": [0, 0.66, 1.3175, 0.4725, 1.13, 0.2825, 0.9425, 0.095, 0.755, 1.4125, 0.565, 1.225, 0.3775, 1.0375, 0.19, 0.8475, 0, 0.66, 1.3175, 0.4725, 1.13, 0.2825, 0.9425, 0.095, 0.755, 1.4125, 0.565, 1.225, 0.3775, 1.0375, 0.19, 0.8475, 0, 0.66, 1.3175, 0.4725, 1.13, 0.2825, 0.9425, 0.095, 0.755, 1.4125, 0.565, 1.225, 0.3775, 1.0375, 0.19, 0.8475, 0, 0.66, 1.3175, 0.4725, 1.13, 0.2825, 0.9425, 0.095, 0.755, 1.4125, 0.565, 1.225, 0.3775, 1.0375, 0.19, 0.8475],
  "SoftwareVersions": "syngo_MR_B17",
  "SpacingBetweenSlices": 2.3,
  "StationName": "MRC35422",
  "TaskName": "wmgng",
  "TotalReadoutTime": 0.0376057,
  "TxRefAmp": 304.505,
  "dcmmeta_affine": [
    [-2.327265977859497, 4.956930421684547e-10, -0.0055451421067118645, 129.27432250976562],
    [0.000892866519279778, 2.2976174354553223, -0.3659997284412384, -112.39988708496094],
    [-0.0055393981747329235, 0.3703407049179077, 2.2706856727600098, -83.33712768554688],
    [0.0, 0.0, 0.0, 1.0]
],
  "dcmmeta_reorient_transform": [
    [0.0, -1.0, 0.0, 109.0],
    [1.0, 0.0, 0.0, 0.0],
    [0.0, 0.0, 1.0, 0.0],
    [0.0, 0.0, 0.0, 1.0]
],
  "dcmmeta_shape": [110, 110, 64, 357],
  "dcmmeta_slice_dim": 2,
  "dcmmeta_version": 0.6,
  "global": {
    "const": {
      "AcquisitionMatrix": [0, 110, 110, 0],
      "AngioFlag": "N",
      "BitsAllocated": 16,
      "BitsStored": 12,
      "Columns": 880,
      "EchoNumbers": 1,
      "EchoTime": 30.0,
      "EchoTrainLength": 1,
      "FlipAngle": 85.0,
      "HighBit": 11,
      "ImageOrientationPatient": [0.99999709370055, -0.0003836536012, -0.0023802101526, 2.129931e-10, 0.987257512679, -0.1591307753355],
      "ImagePositionPatient": [-1025.2716900001, -1022.2793616776, 101.74384561793],
      "ImageType": [
        "ORIGINAL",
        "PRIMARY",
        "FMRI",
        "NONE",
        "MB",
        "ND",
        "MOSAIC"
],
      "ImagedNucleus": "1H",
      "ImagingFrequency": 123.177386,
      "InPlanePhaseEncodingDirection": "ROW",
      "MRAcquisitionType": "2D",
      "MagneticFieldStrength": 3.0,
      "Manufacturer": "SIEMENS",
      "ManufacturerModelName": "TrioTim",
      "Modality": "MR",
      "NumberOfAverages": 1.0,
      "NumberOfPhaseEncodingSteps": 110,
      "PercentPhaseFieldOfView": 100.0,
      "PercentSampling": 100.0,
      "PerformedProcedureStepStartTime": "154858.687000",
      "PhotometricInterpretation": "MONOCHROME2",
      "PixelBandwidth": 1748.0,
      "PixelRepresentation": 0,
      "PixelSpacing": [2.3272726535797, 2.3272726535797],
      "ProtocolName": "WMGNG1_MB4_LR_SBRef",
      "ReferencedPerformedProcedureStepSequence": [
        {
          "ReferencedSOPClassUID": "1.2.840.10008.3.1.2.3.3",
          "ReferencedSOPInstanceUID": "1.3.12.2.1107.5.2.32.35422.30000020013000402846800000002"}
],
      "RepetitionTime": 1500.0,
      "Rows": 880,
      "SAR": 0.10949202223887,
      "SamplesPerPixel": 1,
      "ScanOptions": "FS",
      "ScanningSequence": "EP",
      "SequenceName": "epfid2d1_110",
      "SequenceVariant": [
        "SK",
        "SS"
],
      "SeriesDescription": "WMGNG1_MB4_LR_SBRef",
      "SeriesNumber": 13,
      "SeriesTime": "163933.156000",
      "SliceLocation": -64.700410384373,
      "SliceThickness": 2.2999999523163,
      "SmallestImagePixelValue": 0,
      "SoftwareVersions": "syngo MR B17",
      "SpacingBetweenSlices": 2.2999999708686,
      "SpecificCharacterSet": "ISO_IR 100",
      "StudyID": "1",
      "StudyTime": "154858.656000",
      "TransmitCoilName": "Body",
      "VariableFlipAngleFlag": "N",
      "WindowCenterWidthExplanation": "Algo1",
      "dBdt": 0.0},
    "slices": {}
  },
  "time": {
    "samples": {
      "AcquisitionNumber": [1, 2, 3, 4, 5, 6, 7, 8, 9, 10, 11, 12, 13, 14, 15, 16, 17, 18, 19, 20, 21, 22, 23, 24, 25, 26, 27, 28, 29, 30, 31, 32, 33, 34, 35, 36, 37, 38, 39, 40, 41, 42, 43, 44, 45, 46, 47, 48, 49, 50, 51, 52, 53, 54, 55, 56, 57, 58, 59, 60, 61, 62, 63, 64, 65, 66, 67, 68, 69, 70, 71, 72, 73, 74, 75, 76, 77, 78, 79, 80, 81, 82, 83, 84, 85, 86, 87, 88, 89, 90, 91, 92, 93, 94, 95, 96, 97, 98, 99, 100, 101, 102, 103, 104, 105, 106, 107, 108, 109, 110, 111, 112, 113, 114, 115, 116, 117, 118, 119, 120, 121, 122, 123, 124, 125, 126, 127, 128, 129, 130, 131, 132, 133, 134, 135, 136, 137, 138, 139, 140, 141, 142, 143, 144, 145, 146, 147, 148, 149, 150, 151, 152, 153, 154, 155, 156, 157, 158, 159, 160, 161, 162, 163, 164, 165, 166, 167, 168, 169, 170, 171, 172, 173, 174, 175, 176, 177, 178, 179, 180, 181, 182, 183, 184, 185, 186, 187, 188, 189, 190, 191, 192, 193, 194, 195, 196, 197, 198, 199, 200, 201, 202, 203, 204, 205, 206, 207, 208, 209, 210, 211, 212, 213, 214, 215, 216, 217, 218, 219, 220, 221, 222, 223, 224, 225, 226, 227, 228, 229, 230, 231, 232, 233, 234, 235, 236, 237, 238, 239, 240, 241, 242, 243, 244, 245, 246, 247, 248, 249, 250, 251, 252, 253, 254, 255, 256, 257, 258, 259, 260, 261, 262, 263, 264, 265, 266, 267, 268, 269, 270, 271, 272, 273, 274, 275, 276, 277, 278, 279, 280, 281, 282, 283, 284, 285, 286, 287, 288, 289, 290, 291, 292, 293, 294, 295, 296, 297, 298, 299, 300, 301, 302, 303, 304, 305, 306, 307, 308, 309, 310, 311, 312, 313, 314, 315, 316, 317, 318, 319, 320, 321, 322, 323, 324, 325, 326, 327, 328, 329, 330, 331, 332, 333, 334, 335, 336, 337, 338, 339, 340, 341, 342, 343, 344, 345, 346, 347, 348, 349, 350, 351, 352, 353, 354, 355, 356, 357],
      "AcquisitionTime": ["163221.435000", "163222.942500", "163224.447500", "163225.955000", "163227.460000", "163228.967500", "163230.472500", "163231.977500", "163233.485000", "163234.990000", "163236.497500", "163238.002500", "163239.507500", "163241.015000", "163242.520000", "163244.027500", "163245.532500", "163247.037500", "163248.545000", "163250.050000", "163251.557500", "163253.062500", "163254.567500", "163256.075000", "163257.580000", "163259.087500", "163300.592500", "163302.100000", "163303.605000", "163305.110000", "163306.617500", "163308.122500", "163309.630000", "163311.135000", "163312.640000", "163314.147500", "163315.652500", "163317.160000", "163318.665000", "163320.170000", "163321.677500", "163323.182500", "163324.690000", "163326.195000", "163327.702500", "163329.207500", "163330.712500", "163332.220000", "163333.725000", "163335.232500", "163336.737500", "163338.242500", "163339.750000", "163341.255000", "163342.762500", "163344.267500", "163345.772500", "163347.280000", "163348.785000", "163350.292500", "163351.797500", "163353.302500", "163354.810000", "163356.315000", "163357.822500", "163359.327500", "163400.835000", "163402.340000", "163403.845000", "163405.352500", "163406.857500", "163408.365000", "163409.870000", "163411.375000", "163412.882500", "163414.387500", "163415.895000", "163417.400000", "163418.905000", "163420.412500", "163421.917500", "163423.425000", "163424.930000", "163426.435000", "163427.942500", "163429.447500", "163430.955000", "163432.460000", "163433.967500", "163435.472500", "163436.977500", "163438.485000", "163439.990000", "163441.497500", "163443.002500", "163444.507500", "163446.015000", "163447.520000", "163449.027500", "163450.532500", "163452.037500", "163453.545000", "163455.050000", "163456.557500", "163458.062500", "163459.567500", "163501.075000", "163502.580000", "163504.087500", "163505.592500", "163507.100000", "163508.605000", "163510.110000", "163511.617500", "163513.122500", "163514.630000", "163516.135000", "163517.640000", "163519.147500", "163520.652500", "163522.160000", "163523.665000", "163525.170000", "163526.677500", "163528.182500", "163529.690000", "163531.195000", "163532.702500", "163534.207500", "163535.712500", "163537.220000", "163538.725000", "163540.232500", "163541.737500", "163543.242500", "163544.750000", "163546.255000", "163547.762500", "163549.267500", "163550.772500", "163552.280000", "163553.785000", "163555.292500", "163556.797500", "163558.302500", "163559.810000", "163601.315000", "163602.822500", "163604.327500", "163605.835000", "163607.340000", "163608.845000", "163610.352500", "163611.857500", "163613.365000", "163614.870000", "163616.375000", "163617.882500", "163619.387500", "163620.895000", "163622.400000", "163623.905000", "163625.412500", "163626.917500", "163628.425000", "163629.930000", "163631.435000", "163632.942500", "163634.447500", "163635.955000", "163637.460000", "163638.967500", "163640.472500", "163641.977500", "163643.485000", "163644.990000", "163646.497500", "163648.002500", "163649.507500", "163651.015000", "163652.520000", "163654.027500", "163655.532500", "163657.037500", "163658.545000", "163700.050000", "163701.557500", "163703.062500", "163704.567500", "163706.075000", "163707.580000", "163709.087500", "163710.592500", "163712.100000", "163713.605000", "163715.110000", "163716.617500", "163718.122500", "163719.630000", "163721.135000", "163722.640000", "163724.147500", "163725.652500", "163727.160000", "163728.665000", "163730.170000", "163731.677500", "163733.182500", "163734.690000", "163736.195000", "163737.702500", "163739.207500", "163740.712500", "163742.220000", "163743.725000", "163745.232500", "163746.737500", "163748.242500", "163749.750000", "163751.255000", "163752.762500", "163754.267500", "163755.772500", "163757.280000", "163758.785000", "163800.292500", "163801.797500", "163803.302500", "163804.810000", "163806.315000", "163807.822500", "163809.327500", "163810.835000", "163812.340000", "163813.845000", "163815.352500", "163816.857500", "163818.365000", "163819.870000", "163821.375000", "163822.882500", "163824.387500", "163825.895000", "163827.400000", "163828.905000", "163830.412500", "163831.917500", "163833.425000", "163834.930000", "163836.435000", "163837.942500", "163839.447500", "163840.955000", "163842.460000", "163843.967500", "163845.472500", "163846.977500", "163848.485000", "163849.990000", "163851.497500", "163853.002500", "163854.507500", "163856.015000", "163857.520000", "163859.027500", "163900.532500", "163902.037500", "163903.545000", "163905.050000", "163906.557500", "163908.062500", "163909.567500", "163911.075000", "163912.580000", "163914.087500", "163915.592500", "163917.100000", "163918.605000", "163920.110000", "163921.617500", "163923.122500", "163924.630000", "163926.135000", "163927.640000", "163929.147500", "163930.652500", "163932.160000", "163933.665000", "163935.170000", "163936.677500", "163938.182500", "163939.690000", "163941.195000", "163942.702500", "163944.207500", "163945.712500", "163947.220000", "163948.725000", "163950.232500", "163951.737500", "163953.242500", "163954.750000", "163956.255000", "163957.762500", "163959.267500", "164000.772500", "164002.280000", "164003.785000", "164005.292500", "164006.797500", "164008.302500", "164009.810000", "164011.315000", "164012.822500", "164014.327500", "164015.835000", "164017.340000", "164018.845000", "164020.352500", "164021.857500", "164023.365000", "164024.870000", "164026.375000", "164027.882500", "164029.387500", "164030.895000", "164032.400000", "164033.905000", "164035.412500", "164036.917500", "164038.425000", "164039.930000", "164041.435000", "164042.942500", "164044.447500", "164045.955000", "164047.460000", "164048.967500", "164050.472500", "164051.977500", "164053.485000", "164054.990000", "164056.497500", "164058.002500", "164059.507500", "164101.015000", "164102.520000", "164104.027500", "164105.532500", "164107.037500", "164108.545000", "164110.050000", "164111.557500", "164113.062500", "164114.567500", "164116.075000", "164117.580000"],
      "ContentTime": ["163933.171000", "164033.156000", "164033.156000", "164033.156000", "164033.171000", "164033.171000", "164033.171000", "164033.171000", "164033.187000", "164033.187000", "164033.187000", "164033.187000", "164033.187000", "164033.187000", "164033.187000", "164033.187000", "164033.203000", "164033.203000", "164033.203000", "164033.203000", "164033.203000", "164033.203000", "164033.203000", "164033.203000", "164033.203000", "164033.218000", "164033.218000", "164033.218000", "164133.156000", "164133.156000", "164133.156000", "164133.171000", "164133.187000", "164133.187000", "164133.187000", "164133.187000", "164133.187000", "164133.187000", "164133.187000", "164133.187000", "164133.187000", "164133.203000", "164133.203000", "164133.203000", "164133.203000", "164133.203000", "164133.203000", "164133.203000", "164133.218000", "164133.218000", "164133.218000", "164133.218000", "164133.218000", "164133.218000", "164233.156000", "164233.156000", "164233.156000", "164233.171000", "164233.171000", "164233.171000", "164233.171000", "164233.171000", "164233.171000", "164233.187000", "164233.187000", "164233.187000", "164233.187000", "164233.187000", "164233.187000", "164233.187000", "164233.187000", "164233.203000", "164233.203000", "164233.203000", "164233.203000", "164233.203000", "164233.203000", "164233.218000", "164233.218000", "164233.218000", "164333.156000", "164333.156000", "164333.156000", "164333.171000", "164333.171000", "164333.171000", "164333.171000", "164333.171000", "164333.187000", "164333.187000", "164333.187000", "164333.187000", "164333.187000", "164333.203000", "164333.203000", "164333.203000", "164333.203000", "164333.203000", "164333.218000", "164333.218000", "164333.218000", "164333.218000", "164333.218000", "164333.218000", "164333.218000", "164333.218000", "164433.156000", "164433.156000", "164433.156000", "164433.171000", "164433.171000", "164433.171000", "164433.171000", "164433.171000", "164433.171000", "164433.187000", "164433.187000", "164433.187000", "164433.187000", "164433.187000", "164433.187000", "164433.203000", "164433.203000", "164433.203000", "164433.203000", "164433.203000", "164433.203000", "164433.203000", "164433.203000", "164433.203000", "164433.218000", "164433.218000", "164533.156000", "164533.156000", "164533.156000", "164533.171000", "164533.171000", "164533.171000", "164533.171000", "164533.171000", "164533.171000", "164533.171000", "164533.171000", "164533.171000", "164533.187000", "164533.187000", "164533.187000", "164533.187000", "164533.187000", "164533.187000", "164533.203000", "164533.203000", "164533.203000", "164533.203000", "164533.203000", "164533.203000", "164533.218000", "164533.218000", "164633.156000", "164633.156000", "164633.156000", "164633.171000", "164633.171000", "164633.171000", "164633.171000", "164633.171000", "164633.171000", "164633.171000", "164633.187000", "164633.187000", "164633.187000", "164633.187000", "164633.187000", "164633.187000", "164633.187000", "164633.187000", "164633.187000", "164633.203000", "164633.203000", "164633.203000", "164633.203000", "164633.203000", "164633.203000", "164733.156000", "164733.156000", "164733.171000", "164733.171000", "164733.171000", "164733.171000", "164733.171000", "164733.171000", "164733.187000", "164733.187000", "164733.187000", "164733.187000", "164733.187000", "164733.187000", "164733.187000", "164733.187000", "164733.203000", "164733.203000", "164733.203000", "164733.203000", "164733.203000", "164733.218000", "164733.218000", "164733.218000", "164733.218000", "164733.218000", "164833.156000", "164833.156000", "164833.156000", "164833.171000", "164833.171000", "164833.171000", "164833.171000", "164833.171000", "164833.171000", "164833.171000", "164833.171000", "164833.171000", "164833.187000", "164833.187000", "164833.187000", "164833.187000", "164833.187000", "164833.187000", "164833.187000", "164833.187000", "164833.203000", "164833.203000", "164833.203000", "164833.203000", "164833.203000", "164833.218000", "164933.156000", "164933.156000", "164933.171000", "164933.171000", "164933.171000", "164933.171000", "164933.171000", "164933.187000", "164933.203000", "164933.203000", "164933.203000", "164933.203000", "164933.203000", "164933.203000", "164933.218000", "164933.218000", "164933.218000", "164933.218000", "164933.218000", "164933.218000", "164933.234000", "164933.234000", "164933.234000", "164933.234000", "164933.234000", "164933.234000", "165033.156000", "165033.156000", "165033.156000", "165033.171000", "165033.171000", "165033.171000", "165033.171000", "165033.171000", "165033.203000", "165033.203000", "165033.203000", "165033.203000", "165033.203000", "165033.218000", "165033.218000", "165033.218000", "165033.218000", "165033.218000", "165033.218000", "165033.218000", "165033.234000", "165033.234000", "165033.234000", "165033.234000", "165033.234000", "165033.234000", "165033.234000", "165133.156000", "165133.156000", "165133.156000", "165133.171000", "165133.171000", "165133.171000", "165133.171000", "165133.187000", "165133.187000", "165133.187000", "165133.187000", "165133.187000", "165133.187000", "165133.187000", "165133.187000", "165133.203000", "165133.203000", "165133.203000", "165133.203000", "165133.203000", "165133.203000", "165133.203000", "165133.218000", "165133.218000", "165133.218000", "165233.156000", "165233.156000", "165233.156000", "165233.171000", "165233.171000", "165233.171000", "165233.171000", "165233.171000", "165233.171000", "165233.171000", "165233.171000", "165233.171000", "165233.187000", "165233.187000", "165233.187000", "165233.187000", "165233.187000", "165233.187000", "165233.187000", "165233.203000", "165233.203000", "165233.203000", "165233.203000", "165233.203000", "165233.203000", "165233.203000", "165314.187000", "165314.187000", "165314.203000", "165314.203000", "165314.203000", "165314.203000", "165314.218000", "165314.218000", "165314.218000", "165314.218000", "165314.218000", "165314.218000", "165314.218000", "165314.218000", "165314.218000", "165314.234000", "165314.234000", "165314.234000"],
      "DataSetTrailingPadding": [
        "\u0000\u0000\u0000\u0000\u0000\u0000\u0000\u0000\u0000\u0000\u0000\u0000\u0000\u0000\u0000\u0000\u0000\u0000\u0000\u0000\u0000\u0000\u0000\u0000\u0000\u0000\u0000\u0000\u0000\u0000\u0000\u0000\u0000\u0000\u0000\u0000\u0000\u0000",
        "\u0000\u0000\u0000\u0000\u0000\u0000\u0000\u0000\u0000\u0000\u0000\u0000\u0000\u0000\u0000\u0000\u0000\u0000\u0000\u0000\u0000\u0000\u0000\u0000\u0000\u0000\u0000\u0000\u0000\u0000\u0000\u0000\u0000\u0000\u0000\u0000",
        "\u0000\u0000\u0000\u0000\u0000\u0000\u0000\u0000\u0000\u0000\u0000\u0000\u0000\u0000\u0000\u0000\u0000\u0000\u0000\u0000\u0000\u0000\u0000\u0000\u0000\u0000\u0000\u0000\u0000\u0000\u0000\u0000\u0000\u0000\u0000\u0000",
        "\u0000\u0000\u0000\u0000\u0000\u0000\u0000\u0000\u0000\u0000\u0000\u0000\u0000\u0000\u0000\u0000\u0000\u0000\u0000\u0000\u0000\u0000\u0000\u0000\u0000\u0000\u0000\u0000\u0000\u0000\u0000\u0000\u0000\u0000\u0000\u0000",
        "\u0000\u0000\u0000\u0000\u0000\u0000\u0000\u0000\u0000\u0000\u0000\u0000\u0000\u0000\u0000\u0000\u0000\u0000\u0000\u0000\u0000\u0000\u0000\u0000\u0000\u0000\u0000\u0000\u0000\u0000\u0000\u0000\u0000\u0000\u0000\u0000\u0000\u0000",
        "\u0000\u0000\u0000\u0000\u0000\u0000\u0000\u0000\u0000\u0000\u0000\u0000\u0000\u0000\u0000\u0000\u0000\u0000\u0000\u0000\u0000\u0000\u0000\u0000\u0000\u0000\u0000\u0000\u0000\u0000\u0000\u0000\u0000\u0000\u0000\u0000\u0000\u0000\u0000\u0000",
        "\u0000\u0000\u0000\u0000\u0000\u0000\u0000\u0000\u0000\u0000\u0000\u0000\u0000\u0000\u0000\u0000\u0000\u0000\u0000\u0000\u0000\u0000\u0000\u0000\u0000\u0000\u0000\u0000\u0000\u0000\u0000\u0000\u0000\u0000\u0000\u0000",
        "\u0000\u0000\u0000\u0000\u0000\u0000\u0000\u0000\u0000\u0000\u0000\u0000\u0000\u0000\u0000\u0000\u0000\u0000\u0000\u0000\u0000\u0000\u0000\u0000\u0000\u0000\u0000\u0000\u0000\u0000\u0000\u0000\u0000\u0000\u0000\u0000",
        "\u0000\u0000\u0000\u0000\u0000\u0000\u0000\u0000\u0000\u0000\u0000\u0000\u0000\u0000\u0000\u0000\u0000\u0000\u0000\u0000\u0000\u0000\u0000\u0000\u0000\u0000\u0000\u0000\u0000\u0000\u0000\u0000\u0000\u0000\u0000\u0000",
        "\u0000\u0000\u0000\u0000\u0000\u0000\u0000\u0000\u0000\u0000\u0000\u0000\u0000\u0000\u0000\u0000\u0000\u0000\u0000\u0000\u0000\u0000\u0000\u0000\u0000\u0000\u0000\u0000\u0000\u0000\u0000\u0000\u0000\u0000\u0000\u0000\u0000\u0000",
        "\u0000\u0000\u0000\u0000\u0000\u0000\u0000\u0000\u0000\u0000\u0000\u0000\u0000\u0000\u0000\u0000\u0000\u0000\u0000\u0000\u0000\u0000\u0000\u0000\u0000\u0000\u0000\u0000\u0000\u0000\u0000\u0000\u0000\u0000\u0000\u0000\u0000\u0000",
        "\u0000\u0000\u0000\u0000\u0000\u0000\u0000\u0000\u0000\u0000\u0000\u0000\u0000\u0000\u0000\u0000\u0000\u0000\u0000\u0000\u0000\u0000\u0000\u0000\u0000\u0000\u0000\u0000\u0000\u0000\u0000\u0000\u0000\u0000\u0000\u0000",
        "\u0000\u0000\u0000\u0000\u0000\u0000\u0000\u0000\u0000\u0000\u0000\u0000\u0000\u0000\u0000\u0000\u0000\u0000\u0000\u0000\u0000\u0000\u0000\u0000\u0000\u0000\u0000\u0000\u0000\u0000\u0000\u0000\u0000\u0000\u0000\u0000",
        "\u0000\u0000\u0000\u0000\u0000\u0000\u0000\u0000\u0000\u0000\u0000\u0000\u0000\u0000\u0000\u0000\u0000\u0000\u0000\u0000\u0000\u0000\u0000\u0000\u0000\u0000\u0000\u0000\u0000\u0000\u0000\u0000\u0000\u0000\u0000\u0000",
        "\u0000\u0000\u0000\u0000\u0000\u0000\u0000\u0000\u0000\u0000\u0000\u0000\u0000\u0000\u0000\u0000\u0000\u0000\u0000\u0000\u0000\u0000\u0000\u0000\u0000\u0000\u0000\u0000\u0000\u0000\u0000\u0000\u0000\u0000\u0000\u0000\u0000\u0000\u0000\u0000\u0000\u0000",
        "\u0000\u0000\u0000\u0000\u0000\u0000\u0000\u0000\u0000\u0000\u0000\u0000\u0000\u0000\u0000\u0000\u0000\u0000\u0000\u0000\u0000\u0000\u0000\u0000\u0000\u0000\u0000\u0000\u0000\u0000\u0000\u0000\u0000\u0000\u0000\u0000\u0000\u0000",
        "\u0000\u0000\u0000\u0000\u0000\u0000\u0000\u0000\u0000\u0000\u0000\u0000\u0000\u0000\u0000\u0000\u0000\u0000\u0000\u0000\u0000\u0000\u0000\u0000\u0000\u0000\u0000\u0000\u0000\u0000\u0000\u0000\u0000\u0000\u0000\u0000",
        "\u0000\u0000\u0000\u0000\u0000\u0000\u0000\u0000\u0000\u0000\u0000\u0000\u0000\u0000\u0000\u0000\u0000\u0000\u0000\u0000\u0000\u0000\u0000\u0000\u0000\u0000\u0000\u0000\u0000\u0000\u0000\u0000\u0000\u0000\u0000\u0000",
        "\u0000\u0000\u0000\u0000\u0000\u0000\u0000\u0000\u0000\u0000\u0000\u0000\u0000\u0000\u0000\u0000\u0000\u0000\u0000\u0000\u0000\u0000\u0000\u0000\u0000\u0000\u0000\u0000\u0000\u0000\u0000\u0000\u0000\u0000\u0000\u0000",
        "\u0000\u0000\u0000\u0000\u0000\u0000\u0000\u0000\u0000\u0000\u0000\u0000\u0000\u0000\u0000\u0000\u0000\u0000\u0000\u0000\u0000\u0000\u0000\u0000\u0000\u0000\u0000\u0000\u0000\u0000\u0000\u0000\u0000\u0000\u0000\u0000\u0000\u0000",
        "\u0000\u0000\u0000\u0000\u0000\u0000\u0000\u0000\u0000\u0000\u0000\u0000\u0000\u0000\u0000\u0000\u0000\u0000\u0000\u0000\u0000\u0000\u0000\u0000\u0000\u0000\u0000\u0000\u0000\u0000\u0000\u0000\u0000\u0000\u0000\u0000\u0000\u0000",
        "\u0000\u0000\u0000\u0000\u0000\u0000\u0000\u0000\u0000\u0000\u0000\u0000\u0000\u0000\u0000\u0000\u0000\u0000\u0000\u0000\u0000\u0000\u0000\u0000\u0000\u0000\u0000\u0000\u0000\u0000\u0000\u0000\u0000\u0000\u0000\u0000",
        "\u0000\u0000\u0000\u0000\u0000\u0000\u0000\u0000\u0000\u0000\u0000\u0000\u0000\u0000\u0000\u0000\u0000\u0000\u0000\u0000\u0000\u0000\u0000\u0000\u0000\u0000\u0000\u0000\u0000\u0000\u0000\u0000\u0000\u0000\u0000\u0000",
        "\u0000\u0000\u0000\u0000\u0000\u0000\u0000\u0000\u0000\u0000\u0000\u0000\u0000\u0000\u0000\u0000\u0000\u0000\u0000\u0000\u0000\u0000\u0000\u0000\u0000\u0000\u0000\u0000\u0000\u0000\u0000\u0000\u0000\u0000\u0000\u0000\u0000\u0000",
        "\u0000\u0000\u0000\u0000\u0000\u0000\u0000\u0000\u0000\u0000\u0000\u0000\u0000\u0000\u0000\u0000\u0000\u0000\u0000\u0000\u0000\u0000\u0000\u0000\u0000\u0000\u0000\u0000\u0000\u0000\u0000\u0000\u0000\u0000\u0000\u0000\u0000\u0000",
        "\u0000\u0000\u0000\u0000\u0000\u0000\u0000\u0000\u0000\u0000\u0000\u0000\u0000\u0000\u0000\u0000\u0000\u0000\u0000\u0000\u0000\u0000\u0000\u0000\u0000\u0000\u0000\u0000\u0000\u0000\u0000\u0000\u0000\u0000\u0000\u0000\u0000\u0000",
        "\u0000\u0000\u0000\u0000\u0000\u0000\u0000\u0000\u0000\u0000\u0000\u0000\u0000\u0000\u0000\u0000\u0000\u0000\u0000\u0000\u0000\u0000\u0000\u0000\u0000\u0000\u0000\u0000\u0000\u0000\u0000\u0000\u0000\u0000\u0000\u0000",
        "\u0000\u0000\u0000\u0000\u0000\u0000\u0000\u0000\u0000\u0000\u0000\u0000\u0000\u0000\u0000\u0000\u0000\u0000\u0000\u0000\u0000\u0000\u0000\u0000\u0000\u0000\u0000\u0000\u0000\u0000\u0000\u0000\u0000\u0000\u0000\u0000",
        "\u0000\u0000\u0000\u0000\u0000\u0000\u0000\u0000\u0000\u0000\u0000\u0000\u0000\u0000\u0000\u0000\u0000\u0000\u0000\u0000\u0000\u0000\u0000\u0000\u0000\u0000\u0000\u0000\u0000\u0000\u0000\u0000\u0000\u0000\u0000\u0000\u0000\u0000",
        "\u0000\u0000\u0000\u0000\u0000\u0000\u0000\u0000\u0000\u0000\u0000\u0000\u0000\u0000\u0000\u0000\u0000\u0000\u0000\u0000\u0000\u0000\u0000\u0000\u0000\u0000\u0000\u0000\u0000\u0000\u0000\u0000\u0000\u0000\u0000\u0000\u0000\u0000",
        "\u0000\u0000\u0000\u0000\u0000\u0000\u0000\u0000\u0000\u0000\u0000\u0000\u0000\u0000\u0000\u0000\u0000\u0000\u0000\u0000\u0000\u0000\u0000\u0000\u0000\u0000\u0000\u0000\u0000\u0000\u0000\u0000\u0000\u0000\u0000\u0000\u0000\u0000",
        "\u0000\u0000\u0000\u0000\u0000\u0000\u0000\u0000\u0000\u0000\u0000\u0000\u0000\u0000\u0000\u0000\u0000\u0000\u0000\u0000\u0000\u0000\u0000\u0000\u0000\u0000\u0000\u0000\u0000\u0000\u0000\u0000\u0000\u0000\u0000\u0000",
        "\u0000\u0000\u0000\u0000\u0000\u0000\u0000\u0000\u0000\u0000\u0000\u0000\u0000\u0000\u0000\u0000\u0000\u0000\u0000\u0000\u0000\u0000\u0000\u0000\u0000\u0000\u0000\u0000\u0000\u0000\u0000\u0000\u0000\u0000\u0000\u0000",
        "\u0000\u0000\u0000\u0000\u0000\u0000\u0000\u0000\u0000\u0000\u0000\u0000\u0000\u0000\u0000\u0000\u0000\u0000\u0000\u0000\u0000\u0000\u0000\u0000\u0000\u0000\u0000\u0000\u0000\u0000\u0000\u0000\u0000\u0000\u0000\u0000\u0000\u0000",
        "\u0000\u0000\u0000\u0000\u0000\u0000\u0000\u0000\u0000\u0000\u0000\u0000\u0000\u0000\u0000\u0000\u0000\u0000\u0000\u0000\u0000\u0000\u0000\u0000\u0000\u0000\u0000\u0000\u0000\u0000\u0000\u0000\u0000\u0000\u0000\u0000\u0000\u0000",
        "\u0000\u0000\u0000\u0000\u0000\u0000\u0000\u0000\u0000\u0000\u0000\u0000\u0000\u0000\u0000\u0000\u0000\u0000\u0000\u0000\u0000\u0000\u0000\u0000\u0000\u0000\u0000\u0000\u0000\u0000\u0000\u0000\u0000\u0000\u0000\u0000\u0000\u0000",
        "\u0000\u0000\u0000\u0000\u0000\u0000\u0000\u0000\u0000\u0000\u0000\u0000\u0000\u0000\u0000\u0000\u0000\u0000\u0000\u0000\u0000\u0000\u0000\u0000\u0000\u0000\u0000\u0000\u0000\u0000\u0000\u0000\u0000\u0000\u0000\u0000",
        "\u0000\u0000\u0000\u0000\u0000\u0000\u0000\u0000\u0000\u0000\u0000\u0000\u0000\u0000\u0000\u0000\u0000\u0000\u0000\u0000\u0000\u0000\u0000\u0000\u0000\u0000\u0000\u0000\u0000\u0000\u0000\u0000\u0000\u0000\u0000\u0000",
        "\u0000\u0000\u0000\u0000\u0000\u0000\u0000\u0000\u0000\u0000\u0000\u0000\u0000\u0000\u0000\u0000\u0000\u0000\u0000\u0000\u0000\u0000\u0000\u0000\u0000\u0000\u0000\u0000\u0000\u0000\u0000\u0000\u0000\u0000\u0000\u0000\u0000\u0000",
        "\u0000\u0000\u0000\u0000\u0000\u0000\u0000\u0000\u0000\u0000\u0000\u0000\u0000\u0000\u0000\u0000\u0000\u0000\u0000\u0000\u0000\u0000\u0000\u0000\u0000\u0000\u0000\u0000\u0000\u0000\u0000\u0000\u0000\u0000\u0000\u0000\u0000\u0000\u0000\u0000",
        "\u0000\u0000\u0000\u0000\u0000\u0000\u0000\u0000\u0000\u0000\u0000\u0000\u0000\u0000\u0000\u0000\u0000\u0000\u0000\u0000\u0000\u0000\u0000\u0000\u0000\u0000\u0000\u0000\u0000\u0000\u0000\u0000\u0000\u0000\u0000\u0000\u0000\u0000",
        "\u0000\u0000\u0000\u0000\u0000\u0000\u0000\u0000\u0000\u0000\u0000\u0000\u0000\u0000\u0000\u0000\u0000\u0000\u0000\u0000\u0000\u0000\u0000\u0000\u0000\u0000\u0000\u0000\u0000\u0000\u0000\u0000\u0000\u0000\u0000\u0000\u0000\u0000\u0000\u0000",
        "\u0000\u0000\u0000\u0000\u0000\u0000\u0000\u0000\u0000\u0000\u0000\u0000\u0000\u0000\u0000\u0000\u0000\u0000\u0000\u0000\u0000\u0000\u0000\u0000\u0000\u0000\u0000\u0000\u0000\u0000\u0000\u0000\u0000\u0000\u0000\u0000",
        "\u0000\u0000\u0000\u0000\u0000\u0000\u0000\u0000\u0000\u0000\u0000\u0000\u0000\u0000\u0000\u0000\u0000\u0000\u0000\u0000\u0000\u0000\u0000\u0000\u0000\u0000\u0000\u0000\u0000\u0000\u0000\u0000\u0000\u0000\u0000\u0000\u0000\u0000",
