{
  "AcquisitionMatrixPE": 110,
  "AcquisitionNumber": 1,
  "AcquisitionTime": "16:47:31.697500",
  "BandwidthPerPixelPhaseEncode": 26.35,
  "BaseResolution": 110,
  "CoilString": "C:HEA;HEP",
  "ConversionSoftware": "dcm2niix",
  "ConversionSoftwareVersion": "v1.0.20190410  GCC6.3.0",
  "DerivedVendorReportedEchoSpacing": 0.000690012,
  "DeviceSerialNumber": "35422",
  "DwellTime": 2.6e-06,
  "EchoTime": 0.03,
  "EffectiveEchoSpacing": 0.000345006,
  "FlipAngle": 85,
  "ImageComments": "Unaliased_MB4_PE4_LB",
  "ImageOrientationPatientDICOM": [0.999923, 0.00297983, 0.0120418, 1.8327e-10, 0.970721, -0.240211],
  "ImageType": [
    "ORIGINAL",
    "PRIMARY",
    "FMRI",
    "NONE",
    "MB",
    "ND",
    "MOSAIC"
],
  "ImagingFrequency": 123.177,
  "InPlanePhaseEncodingDirectionDICOM": "ROW",
  "InstitutionAddress": "kwanakro_599_C4F276_Seoul_KR_ZIP",
  "InstitutionName": "SNUBIC",
  "InstitutionalDepartmentName": "Department",
  "MRAcquisitionType": "2D",
  "MagneticFieldStrength": 3,
  "Manufacturer": "Siemens",
  "ManufacturersModelName": "TrioTim",
  "Modality": "MR",
  "MultibandAccelerationFactor": 4,
  "ParallelReductionFactorInPlane": 2,
  "PartialFourier": 1,
  "PatientPosition": "HFS",
  "PercentPhaseFOV": 100,
  "PhaseEncodingDirection": "i-",
  "PhaseEncodingSteps": 110,
  "PhaseResolution": 1,
  "PixelBandwidth": 1748,
  "ProcedureStepDescription": "SNU_SAVED",
  "ProtocolName": "WMGNG2_MB4_LR_SBRef",
  "PulseSequenceDetails": "%CustomerSeq%_cmrr_mbep2d_bold",
  "ReceiveCoilName": "32Ch_Head",
  "ReconMatrixPE": 110,
  "RefLinesPE": 32,
  "RepetitionTime": 1.5,
  "SAR": 0.143307,
  "ScanOptions": "FS",
  "ScanningSequence": "EP",
  "SequenceName": "epfid2d1_110",
  "SequenceVariant": "SK_SS",
  "SeriesDescription": "WMGNG2_MB4_LR_SBRef",
  "SeriesNumber": 20,
  "ShimSetting": [-4164, -29751, -2094, 563, -223, 13, -182, 57],
  "SliceThickness": 2.3,
  "SliceTiming": [0, 0.6575, 1.3175, 0.47, 1.13, 0.2825, 0.94, 0.095, 0.7525, 1.41, 0.565, 1.2225, 0.375, 1.035, 0.1875, 0.8475, 0, 0.6575, 1.3175, 0.47, 1.13, 0.2825, 0.94, 0.095, 0.7525, 1.41, 0.565, 1.2225, 0.375, 1.035, 0.1875, 0.8475, 0, 0.6575, 1.3175, 0.47, 1.13, 0.2825, 0.94, 0.095, 0.7525, 1.41, 0.565, 1.2225, 0.375, 1.035, 0.1875, 0.8475, 0, 0.6575, 1.3175, 0.47, 1.13, 0.2825, 0.94, 0.095, 0.7525, 1.41, 0.565, 1.2225, 0.375, 1.035, 0.1875, 0.8475],
  "SoftwareVersions": "syngo_MR_B17",
  "SpacingBetweenSlices": 2.3,
  "StationName": "MRC35422",
  "TaskName": "wmgng",
  "TotalReadoutTime": 0.0376057,
  "TxRefAmp": 350.385,
  "dcmmeta_affine": [
    [-2.3270936012268066, 4.2651879250676927e-10, 0.02853163331747055, 132.40611267089844],
    [-0.006934885401278734, 2.259131669998169, -0.552443265914917, -103.73067474365234],
    [0.02802465856075287, 0.5590369701385498, 2.232485771179199, -75.84131622314453],
    [0.0, 0.0, 0.0, 1.0]
],
  "dcmmeta_reorient_transform": [
    [0.0, -1.0, 0.0, 109.0],
    [1.0, 0.0, 0.0, 0.0],
    [0.0, 0.0, 1.0, 0.0],
    [0.0, 0.0, 0.0, 1.0]
],
  "dcmmeta_shape": [110, 110, 64, 357],
  "dcmmeta_slice_dim": 2,
  "dcmmeta_version": 0.6,
  "global": {
    "const": {
      "AcquisitionMatrix": [0, 110, 110, 0],
      "AngioFlag": "N",
      "BitsAllocated": 16,
      "BitsStored": 12,
      "Columns": 880,
      "EchoNumbers": 1,
      "EchoTime": 30.0,
      "EchoTrainLength": 1,
      "FlipAngle": 85.0,
      "HighBit": 11,
      "ImageOrientationPatient": [0.99992305431039, 0.0029798337103, 0.01204184577404, 1.832698e-10, 0.97072064807483, -0.2402112058193],
      "ImagePositionPatient": [-1028.3371390288, -1014.9502794607, 189.53345210855],
      "ImageType": [
        "ORIGINAL",
        "PRIMARY",
        "FMRI",
        "NONE",
        "MB",
        "ND",
        "MOSAIC"
],
      "ImagedNucleus": "1H",
      "ImagingFrequency": 123.177313,
      "InPlanePhaseEncodingDirection": "ROW",
      "MRAcquisitionType": "2D",
      "MagneticFieldStrength": 3.0,
      "Manufacturer": "SIEMENS",
      "ManufacturerModelName": "TrioTim",
      "Modality": "MR",
      "NumberOfAverages": 1.0,
      "NumberOfPhaseEncodingSteps": 110,
      "PercentPhaseFieldOfView": 100.0,
      "PercentSampling": 100.0,
      "PerformedProcedureStepStartTime": "160300.531000",
      "PhotometricInterpretation": "MONOCHROME2",
      "PixelBandwidth": 1748.0,
      "PixelRepresentation": 0,
      "PixelSpacing": [2.3272726535797, 2.3272726535797],
      "ProtocolName": "WMGNG2_MB4_LR_SBRef",
      "ReferencedPerformedProcedureStepSequence": [
        {
          "ReferencedSOPClassUID": "1.2.840.10008.3.1.2.3.3",
          "ReferencedSOPInstanceUID": "1.3.12.2.1107.5.2.32.35422.30000020040800531926500000005"}
],
      "RepetitionTime": 1500.0,
      "Rows": 880,
      "SAR": 0.14330663451078,
      "SamplesPerPixel": 1,
      "ScanOptions": "FS",
      "ScanningSequence": "EP",
      "SequenceName": "epfid2d1_110",
      "SequenceVariant": [
        "SK",
        "SS"
],
      "SeriesDescription": "WMGNG2_MB4_LR_SBRef",
      "SeriesNumber": 20,
      "SeriesTime": "165859.796000",
      "SliceLocation": -47.05721061841,
      "SliceThickness": 2.2999999523163,
      "SmallestImagePixelValue": 0,
      "SoftwareVersions": "syngo MR B17",
      "SpacingBetweenSlices": 2.3000000535326,
      "SpecificCharacterSet": "ISO_IR 100",
      "StudyID": "1",
      "StudyTime": "160300.484000",
      "TransmitCoilName": "Body",
      "VariableFlipAngleFlag": "N",
      "WindowCenterWidthExplanation": "Algo1",
      "dBdt": 0.0},
    "slices": {}
  },
  "time": {
    "samples": {
      "AcquisitionNumber": [1, 2, 3, 4, 5, 6, 7, 8, 9, 10, 11, 12, 13, 14, 15, 16, 17, 18, 19, 20, 21, 22, 23, 24, 25, 26, 27, 28, 29, 30, 31, 32, 33, 34, 35, 36, 37, 38, 39, 40, 41, 42, 43, 44, 45, 46, 47, 48, 49, 50, 51, 52, 53, 54, 55, 56, 57, 58, 59, 60, 61, 62, 63, 64, 65, 66, 67, 68, 69, 70, 71, 72, 73, 74, 75, 76, 77, 78, 79, 80, 81, 82, 83, 84, 85, 86, 87, 88, 89, 90, 91, 92, 93, 94, 95, 96, 97, 98, 99, 100, 101, 102, 103, 104, 105, 106, 107, 108, 109, 110, 111, 112, 113, 114, 115, 116, 117, 118, 119, 120, 121, 122, 123, 124, 125, 126, 127, 128, 129, 130, 131, 132, 133, 134, 135, 136, 137, 138, 139, 140, 141, 142, 143, 144, 145, 146, 147, 148, 149, 150, 151, 152, 153, 154, 155, 156, 157, 158, 159, 160, 161, 162, 163, 164, 165, 166, 167, 168, 169, 170, 171, 172, 173, 174, 175, 176, 177, 178, 179, 180, 181, 182, 183, 184, 185, 186, 187, 188, 189, 190, 191, 192, 193, 194, 195, 196, 197, 198, 199, 200, 201, 202, 203, 204, 205, 206, 207, 208, 209, 210, 211, 212, 213, 214, 215, 216, 217, 218, 219, 220, 221, 222, 223, 224, 225, 226, 227, 228, 229, 230, 231, 232, 233, 234, 235, 236, 237, 238, 239, 240, 241, 242, 243, 244, 245, 246, 247, 248, 249, 250, 251, 252, 253, 254, 255, 256, 257, 258, 259, 260, 261, 262, 263, 264, 265, 266, 267, 268, 269, 270, 271, 272, 273, 274, 275, 276, 277, 278, 279, 280, 281, 282, 283, 284, 285, 286, 287, 288, 289, 290, 291, 292, 293, 294, 295, 296, 297, 298, 299, 300, 301, 302, 303, 304, 305, 306, 307, 308, 309, 310, 311, 312, 313, 314, 315, 316, 317, 318, 319, 320, 321, 322, 323, 324, 325, 326, 327, 328, 329, 330, 331, 332, 333, 334, 335, 336, 337, 338, 339, 340, 341, 342, 343, 344, 345, 346, 347, 348, 349, 350, 351, 352, 353, 354, 355, 356, 357],
      "AcquisitionTime": ["164731.697500", "164733.202500", "164734.710000", "164736.215000", "164737.722500", "164739.227500", "164740.732500", "164742.240000", "164743.745000", "164745.252500", "164746.757500", "164748.262500", "164749.770000", "164751.275000", "164752.782500", "164754.287500", "164755.792500", "164757.300000", "164758.805000", "164800.312500", "164801.817500", "164803.325000", "164804.830000", "164806.335000", "164807.842500", "164809.347500", "164810.855000", "164812.360000", "164813.865000", "164815.372500", "164816.877500", "164818.385000", "164819.890000", "164821.395000", "164822.902500", "164824.407500", "164825.915000", "164827.420000", "164828.925000", "164830.432500", "164831.937500", "164833.445000", "164834.950000", "164836.457500", "164837.962500", "164839.467500", "164840.975000", "164842.480000", "164843.987500", "164845.492500", "164846.997500", "164848.505000", "164850.010000", "164851.517500", "164853.022500", "164854.527500", "164856.035000", "164857.540000", "164859.047500", "164900.552500", "164902.057500", "164903.565000", "164905.070000", "164906.577500", "164908.082500", "164909.590000", "164911.095000", "164912.600000", "164914.107500", "164915.612500", "164917.120000", "164918.625000", "164920.130000", "164921.637500", "164923.142500", "164924.650000", "164926.155000", "164927.660000", "164929.167500", "164930.672500", "164932.180000", "164933.685000", "164935.192500", "164936.697500", "164938.202500", "164939.710000", "164941.215000", "164942.722500", "164944.227500", "164945.732500", "164947.240000", "164948.745000", "164950.252500", "164951.757500", "164953.262500", "164954.770000", "164956.275000", "164957.782500", "164959.287500", "165000.792500", "165002.300000", "165003.805000", "165005.312500", "165006.817500", "165008.325000", "165009.830000", "165011.335000", "165012.842500", "165014.347500", "165015.855000", "165017.360000", "165018.865000", "165020.372500", "165021.877500", "165023.385000", "165024.890000", "165026.395000", "165027.902500", "165029.407500", "165030.915000", "165032.420000", "165033.925000", "165035.432500", "165036.937500", "165038.445000", "165039.950000", "165041.457500", "165042.962500", "165044.467500", "165045.975000", "165047.480000", "165048.987500", "165050.492500", "165051.997500", "165053.505000", "165055.010000", "165056.517500", "165058.022500", "165059.527500", "165101.035000", "165102.540000", "165104.047500", "165105.552500", "165107.057500", "165108.565000", "165110.070000", "165111.577500", "165113.082500", "165114.590000", "165116.095000", "165117.600000", "165119.107500", "165120.612500", "165122.120000", "165123.625000", "165125.130000", "165126.637500", "165128.142500", "165129.650000", "165131.155000", "165132.660000", "165134.167500", "165135.672500", "165137.180000", "165138.685000", "165140.192500", "165141.697500", "165143.202500", "165144.710000", "165146.215000", "165147.722500", "165149.227500", "165150.732500", "165152.240000", "165153.745000", "165155.252500", "165156.757500", "165158.262500", "165159.770000", "165201.275000", "165202.782500", "165204.287500", "165205.792500", "165207.300000", "165208.805000", "165210.312500", "165211.817500", "165213.325000", "165214.830000", "165216.335000", "165217.842500", "165219.347500", "165220.855000", "165222.360000", "165223.865000", "165225.372500", "165226.877500", "165228.385000", "165229.890000", "165231.395000", "165232.902500", "165234.407500", "165235.915000", "165237.420000", "165238.925000", "165240.432500", "165241.937500", "165243.445000", "165244.950000", "165246.457500", "165247.962500", "165249.467500", "165250.975000", "165252.480000", "165253.987500", "165255.492500", "165256.997500", "165258.505000", "165300.010000", "165301.517500", "165303.022500", "165304.527500", "165306.035000", "165307.540000", "165309.047500", "165310.552500", "165312.057500", "165313.565000", "165315.070000", "165316.577500", "165318.082500", "165319.590000", "165321.095000", "165322.600000", "165324.107500", "165325.612500", "165327.120000", "165328.625000", "165330.130000", "165331.637500", "165333.142500", "165334.650000", "165336.155000", "165337.660000", "165339.167500", "165340.672500", "165342.180000", "165343.685000", "165345.192500", "165346.697500", "165348.202500", "165349.710000", "165351.215000", "165352.722500", "165354.227500", "165355.732500", "165357.240000", "165358.745000", "165400.252500", "165401.757500", "165403.262500", "165404.770000", "165406.275000", "165407.782500", "165409.287500", "165410.792500", "165412.300000", "165413.805000", "165415.312500", "165416.817500", "165418.325000", "165419.830000", "165421.335000", "165422.842500", "165424.347500", "165425.855000", "165427.360000", "165428.865000", "165430.372500", "165431.877500", "165433.385000", "165434.890000", "165436.395000", "165437.902500", "165439.407500", "165440.915000", "165442.420000", "165443.925000", "165445.432500", "165446.937500", "165448.445000", "165449.950000", "165451.457500", "165452.962500", "165454.467500", "165455.975000", "165457.480000", "165458.987500", "165500.492500", "165501.997500", "165503.505000", "165505.010000", "165506.517500", "165508.022500", "165509.527500", "165511.035000", "165512.540000", "165514.047500", "165515.552500", "165517.057500", "165518.565000", "165520.070000", "165521.577500", "165523.082500", "165524.590000", "165526.095000", "165527.600000", "165529.107500", "165530.612500", "165532.120000", "165533.625000", "165535.130000", "165536.637500", "165538.142500", "165539.650000", "165541.155000", "165542.660000", "165544.167500", "165545.672500", "165547.180000", "165548.685000", "165550.192500", "165551.697500", "165553.202500", "165554.710000", "165556.215000", "165557.722500", "165559.227500", "165600.732500", "165602.240000", "165603.745000", "165605.252500", "165606.757500", "165608.262500", "165609.770000", "165611.275000", "165612.782500", "165614.287500", "165615.792500", "165617.300000", "165618.805000", "165620.312500", "165621.817500", "165623.325000", "165624.830000", "165626.335000", "165627.842500"],
      "ContentTime": ["165859.796000", "165859.796000", "165859.796000", "165859.796000", "165859.796000", "165859.828000", "165859.828000", "165859.828000", "165859.828000", "165859.828000", "165959.781000", "165959.796000", "165959.796000", "165959.796000", "165959.796000", "165959.812000", "165959.812000", "165959.812000", "165959.812000", "165959.812000", "165959.812000", "165959.812000", "165959.812000", "165959.828000", "165959.828000", "165959.828000", "165959.828000", "165959.828000", "165959.828000", "165959.828000", "165959.828000", "165959.828000", "165959.843000", "165959.843000", "165959.843000", "165959.843000", "170059.781000", "170059.796000", "170059.796000", "170059.796000", "170059.796000", "170059.796000", "170059.796000", "170059.796000", "170059.796000", "170059.812000", "170059.812000", "170059.812000", "170059.812000", "170059.812000", "170059.812000", "170059.812000", "170059.812000", "170059.828000", "170059.828000", "170059.828000", "170059.828000", "170059.828000", "170059.828000", "170059.843000", "170059.843000", "170059.843000", "170159.781000", "170159.796000", "170159.796000", "170159.796000", "170159.796000", "170159.796000", "170159.812000", "170159.812000", "170159.812000", "170159.812000", "170159.812000", "170159.812000", "170159.812000", "170159.812000", "170159.812000", "170159.828000", "170159.828000", "170159.828000", "170159.843000", "170159.843000", "170159.843000", "170159.843000", "170159.843000", "170159.843000", "170159.859000", "170159.859000", "170259.781000", "170259.796000", "170259.796000", "170259.796000", "170259.796000", "170259.796000", "170259.796000", "170259.796000", "170259.796000", "170259.812000", "170259.812000", "170259.812000", "170259.812000", "170259.812000", "170259.812000", "170259.812000", "170259.812000", "170259.828000", "170259.828000", "170259.828000", "170259.828000", "170259.828000", "170259.828000", "170259.828000", "170259.828000", "170259.843000", "170359.781000", "170359.796000", "170359.796000", "170359.796000", "170359.796000", "170359.796000", "170359.796000", "170359.812000", "170359.812000", "170359.812000", "170359.812000", "170359.812000", "170359.812000", "170359.812000", "170359.828000", "170359.828000", "170359.828000", "170359.828000", "170359.828000", "170359.828000", "170359.828000", "170359.828000", "170359.843000", "170359.843000", "170359.843000", "170359.843000", "170459.781000", "170459.796000", "170459.796000", "170459.796000", "170459.796000", "170459.796000", "170459.796000", "170459.812000", "170459.812000", "170459.812000", "170459.812000", "170459.812000", "170459.812000", "170459.812000", "170459.812000", "170459.812000", "170459.828000", "170459.828000", "170459.828000", "170459.828000", "170459.828000", "170459.843000", "170459.843000", "170459.843000", "170459.843000", "170559.781000", "170559.796000", "170559.796000", "170559.796000", "170559.796000", "170559.796000", "170559.796000", "170559.796000", "170559.796000", "170559.796000", "170559.812000", "170559.812000", "170559.812000", "170559.812000", "170559.812000", "170559.812000", "170559.812000", "170559.812000", "170559.812000", "170559.828000", "170559.828000", "170559.828000", "170559.828000", "170559.828000", "170559.828000", "170559.828000", "170659.781000", "170659.796000", "170659.796000", "170659.796000", "170659.796000", "170659.796000", "170659.796000", "170659.812000", "170659.812000", "170659.812000", "170659.812000", "170659.812000", "170659.812000", "170659.812000", "170659.812000", "170659.828000", "170659.828000", "170659.828000", "170659.828000", "170659.828000", "170659.828000", "170659.828000", "170659.828000", "170659.828000", "170659.843000", "170659.843000", "170719.781000", "170719.796000", "170719.796000", "170719.796000", "170719.812000", "170719.812000", "170719.812000", "170719.812000", "170719.812000", "170819.781000", "170819.796000", "170819.796000", "170819.796000", "170819.796000", "170819.796000", "170819.796000", "170819.812000", "170819.812000", "170819.812000", "170819.812000", "170819.812000", "170819.812000", "170819.828000", "170819.828000", "170819.828000", "170819.828000", "170819.828000", "170819.828000", "170819.828000", "170819.828000", "170819.843000", "170819.843000", "170819.843000", "170819.843000", "170819.843000", "170919.781000", "170919.796000", "170919.796000", "170919.796000", "170919.796000", "170919.796000", "170919.796000", "170919.796000", "170919.796000", "170919.812000", "170919.812000", "170919.812000", "170919.812000", "170919.812000", "170919.812000", "170919.812000", "170919.812000", "170919.812000", "170919.828000", "170919.828000", "170919.828000", "170919.828000", "170919.828000", "170919.843000", "170919.843000", "171019.781000", "171019.796000", "171019.796000", "171019.796000", "171019.812000", "171019.812000", "171019.812000", "171019.812000", "171019.812000", "171019.812000", "171019.812000", "171019.812000", "171019.812000", "171019.828000", "171019.828000", "171019.828000", "171019.828000", "171019.828000", "171019.828000", "171019.828000", "171019.828000", "171019.843000", "171019.843000", "171019.843000", "171019.843000", "171019.843000", "171119.781000", "171119.796000", "171119.796000", "171119.796000", "171119.796000", "171119.796000", "171119.796000", "171119.796000", "171119.812000", "171119.812000", "171119.812000", "171119.812000", "171119.812000", "171119.828000", "171119.828000", "171119.828000", "171119.828000", "171119.828000", "171119.828000", "171119.828000", "171119.828000", "171119.828000", "171119.843000", "171119.843000", "171119.843000", "171119.843000", "171219.781000", "171219.796000", "171219.796000", "171219.796000", "171219.796000", "171219.796000", "171219.796000", "171219.796000", "171219.796000", "171219.812000", "171219.812000", "171219.812000", "171219.812000", "171219.812000", "171219.828000", "171219.828000", "171219.828000", "171219.828000", "171219.828000", "171219.828000", "171219.828000", "171219.828000", "171219.843000", "171219.843000", "171219.843000", "171219.843000", "171223.187000", "171223.187000"],
      "DataSetTrailingPadding": [
        "\u0000\u0000\u0000\u0000\u0000\u0000\u0000\u0000\u0000\u0000\u0000\u0000\u0000\u0000\u0000\u0000\u0000\u0000\u0000\u0000\u0000\u0000\u0000\u0000\u0000\u0000\u0000\u0000\u0000\u0000\u0000\u0000\u0000\u0000\u0000\u0000\u0000\u0000\u0000\u0000\u0000\u0000\u0000\u0000\u0000\u0000\u0000\u0000\u0000\u0000\u0000\u0000\u0000\u0000\u0000\u0000",
        "\u0000\u0000\u0000\u0000\u0000\u0000\u0000\u0000\u0000\u0000\u0000\u0000\u0000\u0000\u0000\u0000\u0000\u0000\u0000\u0000\u0000\u0000\u0000\u0000\u0000\u0000\u0000\u0000\u0000\u0000\u0000\u0000\u0000\u0000\u0000\u0000\u0000\u0000\u0000\u0000\u0000\u0000\u0000\u0000\u0000\u0000\u0000\u0000\u0000\u0000\u0000\u0000\u0000\u0000\u0000\u0000",
        "\u0000\u0000\u0000\u0000\u0000\u0000\u0000\u0000\u0000\u0000\u0000\u0000\u0000\u0000\u0000\u0000\u0000\u0000\u0000\u0000\u0000\u0000\u0000\u0000\u0000\u0000\u0000\u0000\u0000\u0000\u0000\u0000\u0000\u0000\u0000\u0000\u0000\u0000\u0000\u0000\u0000\u0000\u0000\u0000\u0000\u0000\u0000\u0000\u0000\u0000\u0000\u0000\u0000\u0000\u0000\u0000",
        "\u0000\u0000\u0000\u0000\u0000\u0000\u0000\u0000\u0000\u0000\u0000\u0000\u0000\u0000\u0000\u0000\u0000\u0000\u0000\u0000\u0000\u0000\u0000\u0000\u0000\u0000\u0000\u0000\u0000\u0000\u0000\u0000\u0000\u0000\u0000\u0000\u0000\u0000\u0000\u0000\u0000\u0000\u0000\u0000\u0000\u0000\u0000\u0000\u0000\u0000\u0000\u0000\u0000\u0000\u0000\u0000\u0000\u0000",
        "\u0000\u0000\u0000\u0000\u0000\u0000\u0000\u0000\u0000\u0000\u0000\u0000\u0000\u0000\u0000\u0000\u0000\u0000\u0000\u0000\u0000\u0000\u0000\u0000\u0000\u0000\u0000\u0000\u0000\u0000\u0000\u0000\u0000\u0000\u0000\u0000\u0000\u0000\u0000\u0000\u0000\u0000\u0000\u0000\u0000\u0000\u0000\u0000\u0000\u0000\u0000\u0000\u0000\u0000\u0000\u0000\u0000\u0000",
        "\u0000\u0000\u0000\u0000\u0000\u0000\u0000\u0000\u0000\u0000\u0000\u0000\u0000\u0000\u0000\u0000\u0000\u0000\u0000\u0000\u0000\u0000\u0000\u0000\u0000\u0000\u0000\u0000\u0000\u0000\u0000\u0000\u0000\u0000\u0000\u0000\u0000\u0000\u0000\u0000\u0000\u0000\u0000\u0000\u0000\u0000\u0000\u0000\u0000\u0000\u0000\u0000\u0000\u0000\u0000\u0000",
        "\u0000\u0000\u0000\u0000\u0000\u0000\u0000\u0000\u0000\u0000\u0000\u0000\u0000\u0000\u0000\u0000\u0000\u0000\u0000\u0000\u0000\u0000\u0000\u0000\u0000\u0000\u0000\u0000\u0000\u0000\u0000\u0000\u0000\u0000\u0000\u0000\u0000\u0000\u0000\u0000\u0000\u0000\u0000\u0000\u0000\u0000\u0000\u0000\u0000\u0000\u0000\u0000\u0000\u0000\u0000\u0000",
        "\u0000\u0000\u0000\u0000\u0000\u0000\u0000\u0000\u0000\u0000\u0000\u0000\u0000\u0000\u0000\u0000\u0000\u0000\u0000\u0000\u0000\u0000\u0000\u0000\u0000\u0000\u0000\u0000\u0000\u0000\u0000\u0000\u0000\u0000\u0000\u0000\u0000\u0000\u0000\u0000\u0000\u0000\u0000\u0000\u0000\u0000\u0000\u0000\u0000\u0000\u0000\u0000\u0000\u0000\u0000\u0000",
        "\u0000\u0000\u0000\u0000\u0000\u0000\u0000\u0000\u0000\u0000\u0000\u0000\u0000\u0000\u0000\u0000\u0000\u0000\u0000\u0000\u0000\u0000\u0000\u0000\u0000\u0000\u0000\u0000\u0000\u0000\u0000\u0000\u0000\u0000\u0000\u0000\u0000\u0000\u0000\u0000\u0000\u0000\u0000\u0000\u0000\u0000\u0000\u0000\u0000\u0000\u0000\u0000\u0000\u0000\u0000\u0000\u0000\u0000",
        "\u0000\u0000\u0000\u0000\u0000\u0000\u0000\u0000\u0000\u0000\u0000\u0000\u0000\u0000\u0000\u0000\u0000\u0000\u0000\u0000\u0000\u0000\u0000\u0000\u0000\u0000\u0000\u0000\u0000\u0000\u0000\u0000\u0000\u0000\u0000\u0000\u0000\u0000\u0000\u0000\u0000\u0000\u0000\u0000\u0000\u0000\u0000\u0000\u0000\u0000\u0000\u0000\u0000\u0000\u0000\u0000\u0000\u0000",
        "\u0000\u0000\u0000\u0000\u0000\u0000\u0000\u0000\u0000\u0000\u0000\u0000\u0000\u0000\u0000\u0000\u0000\u0000\u0000\u0000\u0000\u0000\u0000\u0000\u0000\u0000\u0000\u0000\u0000\u0000\u0000\u0000\u0000\u0000\u0000\u0000\u0000\u0000\u0000\u0000\u0000\u0000\u0000\u0000\u0000\u0000\u0000\u0000\u0000\u0000\u0000\u0000\u0000\u0000\u0000\u0000",
        "\u0000\u0000\u0000\u0000\u0000\u0000\u0000\u0000\u0000\u0000\u0000\u0000\u0000\u0000\u0000\u0000\u0000\u0000\u0000\u0000\u0000\u0000\u0000\u0000\u0000\u0000\u0000\u0000\u0000\u0000\u0000\u0000\u0000\u0000\u0000\u0000\u0000\u0000\u0000\u0000\u0000\u0000\u0000\u0000\u0000\u0000\u0000\u0000\u0000\u0000\u0000\u0000\u0000\u0000\u0000\u0000",
        "\u0000\u0000\u0000\u0000\u0000\u0000\u0000\u0000\u0000\u0000\u0000\u0000\u0000\u0000\u0000\u0000\u0000\u0000\u0000\u0000\u0000\u0000\u0000\u0000\u0000\u0000\u0000\u0000\u0000\u0000\u0000\u0000\u0000\u0000\u0000\u0000\u0000\u0000\u0000\u0000\u0000\u0000\u0000\u0000\u0000\u0000\u0000\u0000\u0000\u0000\u0000\u0000\u0000\u0000\u0000\u0000",
        "\u0000\u0000\u0000\u0000\u0000\u0000\u0000\u0000\u0000\u0000\u0000\u0000\u0000\u0000\u0000\u0000\u0000\u0000\u0000\u0000\u0000\u0000\u0000\u0000\u0000\u0000\u0000\u0000\u0000\u0000\u0000\u0000\u0000\u0000\u0000\u0000\u0000\u0000\u0000\u0000\u0000\u0000\u0000\u0000\u0000\u0000\u0000\u0000\u0000\u0000\u0000\u0000\u0000\u0000\u0000\u0000\u0000\u0000",
        "\u0000\u0000\u0000\u0000\u0000\u0000\u0000\u0000\u0000\u0000\u0000\u0000\u0000\u0000\u0000\u0000\u0000\u0000\u0000\u0000\u0000\u0000\u0000\u0000\u0000\u0000\u0000\u0000\u0000\u0000\u0000\u0000\u0000\u0000\u0000\u0000\u0000\u0000\u0000\u0000\u0000\u0000\u0000\u0000\u0000\u0000\u0000\u0000\u0000\u0000\u0000\u0000\u0000\u0000\u0000\u0000\u0000\u0000",
        "\u0000\u0000\u0000\u0000\u0000\u0000\u0000\u0000\u0000\u0000\u0000\u0000\u0000\u0000\u0000\u0000\u0000\u0000\u0000\u0000\u0000\u0000\u0000\u0000\u0000\u0000\u0000\u0000\u0000\u0000\u0000\u0000\u0000\u0000\u0000\u0000\u0000\u0000\u0000\u0000\u0000\u0000\u0000\u0000\u0000\u0000\u0000\u0000\u0000\u0000\u0000\u0000\u0000\u0000\u0000\u0000",
        "\u0000\u0000\u0000\u0000\u0000\u0000\u0000\u0000\u0000\u0000\u0000\u0000\u0000\u0000\u0000\u0000\u0000\u0000\u0000\u0000\u0000\u0000\u0000\u0000\u0000\u0000\u0000\u0000\u0000\u0000\u0000\u0000\u0000\u0000\u0000\u0000\u0000\u0000\u0000\u0000\u0000\u0000\u0000\u0000\u0000\u0000\u0000\u0000\u0000\u0000\u0000\u0000\u0000\u0000\u0000\u0000",
        "\u0000\u0000\u0000\u0000\u0000\u0000\u0000\u0000\u0000\u0000\u0000\u0000\u0000\u0000\u0000\u0000\u0000\u0000\u0000\u0000\u0000\u0000\u0000\u0000\u0000\u0000\u0000\u0000\u0000\u0000\u0000\u0000\u0000\u0000\u0000\u0000\u0000\u0000\u0000\u0000\u0000\u0000\u0000\u0000\u0000\u0000\u0000\u0000\u0000\u0000\u0000\u0000\u0000\u0000\u0000\u0000\u0000\u0000",
        "\u0000\u0000\u0000\u0000\u0000\u0000\u0000\u0000\u0000\u0000\u0000\u0000\u0000\u0000\u0000\u0000\u0000\u0000\u0000\u0000\u0000\u0000\u0000\u0000\u0000\u0000\u0000\u0000\u0000\u0000\u0000\u0000\u0000\u0000\u0000\u0000\u0000\u0000\u0000\u0000\u0000\u0000\u0000\u0000\u0000\u0000\u0000\u0000\u0000\u0000\u0000\u0000\u0000\u0000\u0000\u0000\u0000\u0000",
        "\u0000\u0000\u0000\u0000\u0000\u0000\u0000\u0000\u0000\u0000\u0000\u0000\u0000\u0000\u0000\u0000\u0000\u0000\u0000\u0000\u0000\u0000\u0000\u0000\u0000\u0000\u0000\u0000\u0000\u0000\u0000\u0000\u0000\u0000\u0000\u0000\u0000\u0000\u0000\u0000\u0000\u0000\u0000\u0000\u0000\u0000\u0000\u0000\u0000\u0000\u0000\u0000\u0000\u0000\u0000\u0000\u0000\u0000",
        "\u0000\u0000\u0000\u0000\u0000\u0000\u0000\u0000\u0000\u0000\u0000\u0000\u0000\u0000\u0000\u0000\u0000\u0000\u0000\u0000\u0000\u0000\u0000\u0000\u0000\u0000\u0000\u0000\u0000\u0000\u0000\u0000\u0000\u0000\u0000\u0000\u0000\u0000\u0000\u0000\u0000\u0000\u0000\u0000\u0000\u0000\u0000\u0000\u0000\u0000\u0000\u0000\u0000\u0000\u0000\u0000",
        "\u0000\u0000\u0000\u0000\u0000\u0000\u0000\u0000\u0000\u0000\u0000\u0000\u0000\u0000\u0000\u0000\u0000\u0000\u0000\u0000\u0000\u0000\u0000\u0000\u0000\u0000\u0000\u0000\u0000\u0000\u0000\u0000\u0000\u0000\u0000\u0000\u0000\u0000\u0000\u0000\u0000\u0000\u0000\u0000\u0000\u0000\u0000\u0000\u0000\u0000\u0000\u0000\u0000\u0000\u0000\u0000\u0000\u0000",
        "\u0000\u0000\u0000\u0000\u0000\u0000\u0000\u0000\u0000\u0000\u0000\u0000\u0000\u0000\u0000\u0000\u0000\u0000\u0000\u0000\u0000\u0000\u0000\u0000\u0000\u0000\u0000\u0000\u0000\u0000\u0000\u0000\u0000\u0000\u0000\u0000\u0000\u0000\u0000\u0000\u0000\u0000\u0000\u0000\u0000\u0000\u0000\u0000\u0000\u0000\u0000\u0000\u0000\u0000\u0000\u0000\u0000\u0000\u0000\u0000",
        "\u0000\u0000\u0000\u0000\u0000\u0000\u0000\u0000\u0000\u0000\u0000\u0000\u0000\u0000\u0000\u0000\u0000\u0000\u0000\u0000\u0000\u0000\u0000\u0000\u0000\u0000\u0000\u0000\u0000\u0000\u0000\u0000\u0000\u0000\u0000\u0000\u0000\u0000\u0000\u0000\u0000\u0000\u0000\u0000\u0000\u0000\u0000\u0000\u0000\u0000\u0000\u0000\u0000\u0000\u0000\u0000\u0000\u0000",
        "\u0000\u0000\u0000\u0000\u0000\u0000\u0000\u0000\u0000\u0000\u0000\u0000\u0000\u0000\u0000\u0000\u0000\u0000\u0000\u0000\u0000\u0000\u0000\u0000\u0000\u0000\u0000\u0000\u0000\u0000\u0000\u0000\u0000\u0000\u0000\u0000\u0000\u0000\u0000\u0000\u0000\u0000\u0000\u0000\u0000\u0000\u0000\u0000\u0000\u0000\u0000\u0000\u0000\u0000\u0000\u0000\u0000\u0000",
        "\u0000\u0000\u0000\u0000\u0000\u0000\u0000\u0000\u0000\u0000\u0000\u0000\u0000\u0000\u0000\u0000\u0000\u0000\u0000\u0000\u0000\u0000\u0000\u0000\u0000\u0000\u0000\u0000\u0000\u0000\u0000\u0000\u0000\u0000\u0000\u0000\u0000\u0000\u0000\u0000\u0000\u0000\u0000\u0000\u0000\u0000\u0000\u0000\u0000\u0000\u0000\u0000\u0000\u0000\u0000\u0000",
        "\u0000\u0000\u0000\u0000\u0000\u0000\u0000\u0000\u0000\u0000\u0000\u0000\u0000\u0000\u0000\u0000\u0000\u0000\u0000\u0000\u0000\u0000\u0000\u0000\u0000\u0000\u0000\u0000\u0000\u0000\u0000\u0000\u0000\u0000\u0000\u0000\u0000\u0000\u0000\u0000\u0000\u0000\u0000\u0000\u0000\u0000\u0000\u0000\u0000\u0000\u0000\u0000\u0000\u0000\u0000\u0000",
        "\u0000\u0000\u0000\u0000\u0000\u0000\u0000\u0000\u0000\u0000\u0000\u0000\u0000\u0000\u0000\u0000\u0000\u0000\u0000\u0000\u0000\u0000\u0000\u0000\u0000\u0000\u0000\u0000\u0000\u0000\u0000\u0000\u0000\u0000\u0000\u0000\u0000\u0000\u0000\u0000\u0000\u0000\u0000\u0000\u0000\u0000\u0000\u0000\u0000\u0000\u0000\u0000\u0000\u0000\u0000\u0000\u0000\u0000",
        "\u0000\u0000\u0000\u0000\u0000\u0000\u0000\u0000\u0000\u0000\u0000\u0000\u0000\u0000\u0000\u0000\u0000\u0000\u0000\u0000\u0000\u0000\u0000\u0000\u0000\u0000\u0000\u0000\u0000\u0000\u0000\u0000\u0000\u0000\u0000\u0000\u0000\u0000\u0000\u0000\u0000\u0000\u0000\u0000\u0000\u0000\u0000\u0000\u0000\u0000\u0000\u0000\u0000\u0000\u0000\u0000\u0000\u0000",
