{
  "AcquisitionMatrixPE": 110,
  "AcquisitionNumber": 1,
  "AcquisitionTime": "13:52:53.080000",
  "BandwidthPerPixelPhaseEncode": 26.35,
  "BaseResolution": 110,
  "CoilString": "C:HEA;HEP",
  "ConversionSoftware": "dcm2niix",
  "ConversionSoftwareVersion": "v1.0.20190410  GCC6.3.0",
  "DerivedVendorReportedEchoSpacing": 0.000690012,
  "DeviceSerialNumber": "35422",
  "DwellTime": 2.6e-06,
  "EchoTime": 0.03,
  "EffectiveEchoSpacing": 0.000345006,
  "FlipAngle": 85,
  "ImageComments": "Unaliased_MB4_PE4_LB",
  "ImageOrientationPatientDICOM": [0.999782, 0.00258054, 0.0207148, 1.14499e-10, 0.99233, -0.123619],
  "ImageType": [
    "ORIGINAL",
    "PRIMARY",
    "FMRI",
    "NONE",
    "MB",
    "ND",
    "MOSAIC"
],
  "ImagingFrequency": 123.177,
  "InPlanePhaseEncodingDirectionDICOM": "ROW",
  "InstitutionAddress": "kwanakro_599_C6F879_Seoul_KR_ZIP",
  "InstitutionName": "SNUBIC",
  "InstitutionalDepartmentName": "Department",
  "MRAcquisitionType": "2D",
  "MagneticFieldStrength": 3,
  "Manufacturer": "Siemens",
  "ManufacturersModelName": "TrioTim",
  "Modality": "MR",
  "MultibandAccelerationFactor": 4,
  "ParallelReductionFactorInPlane": 2,
  "PartialFourier": 1,
  "PatientPosition": "HFS",
  "PercentPhaseFOV": 100,
  "PhaseEncodingDirection": "i-",
  "PhaseEncodingSteps": 110,
  "PhaseResolution": 1,
  "PixelBandwidth": 1748,
  "ProcedureStepDescription": "SNU_SAVED",
  "ProtocolName": "WMGNG2_MB4_LR_SBRef",
  "PulseSequenceDetails": "%CustomerSeq%_cmrr_mbep2d_bold",
  "ReceiveCoilName": "32Ch_Head",
  "ReconMatrixPE": 110,
  "RefLinesPE": 32,
  "RepetitionTime": 1.5,
  "SAR": 0.119373,
  "ScanOptions": "FS",
  "ScanningSequence": "EP",
  "SequenceName": "epfid2d1_110",
  "SequenceVariant": "SK_SS",
  "SeriesDescription": "WMGNG2_MB4_LR_SBRef",
  "SeriesNumber": 20,
  "ShimSetting": [-4137, -29552, -2186, 720, -43, 683, -503, -37],
  "SliceThickness": 2.3,
  "SliceTiming": [0, 0.6575, 1.3175, 0.47, 1.1275, 0.2825, 0.94, 0.0925, 0.7525, 1.41, 0.565, 1.2225, 0.375, 1.035, 0.1875, 0.845, 0, 0.6575, 1.3175, 0.47, 1.1275, 0.2825, 0.94, 0.0925, 0.7525, 1.41, 0.565, 1.2225, 0.375, 1.035, 0.1875, 0.845, 0, 0.6575, 1.3175, 0.47, 1.1275, 0.2825, 0.94, 0.0925, 0.7525, 1.41, 0.565, 1.2225, 0.375, 1.035, 0.1875, 0.845, 0, 0.6575, 1.3175, 0.47, 1.1275, 0.2825, 0.94, 0.0925, 0.7525, 1.41, 0.565, 1.2225, 0.375, 1.035, 0.1875, 0.845],
  "SoftwareVersions": "syngo_MR_B17",
  "SpacingBetweenSlices": 2.3,
  "StationName": "MRC35422",
  "TaskName": "wmgng",
  "TotalReadoutTime": 0.0376057,
  "TxRefAmp": 301.673,
  "dcmmeta_affine": [
    [-2.326765537261963, 2.6647015149983133e-10, 0.04801240935921669, 130.05589294433594],
    [-0.006005618255585432, 2.309422016143799, -0.28426146507263184, -109.07608032226562],
    [0.048209093511104584, 0.2876948416233063, 2.2818610668182373, -74.04248046875],
    [0.0, 0.0, 0.0, 1.0]
],
  "dcmmeta_reorient_transform": [
    [0.0, -1.0, 0.0, 109.0],
    [1.0, 0.0, 0.0, 0.0],
    [0.0, 0.0, 1.0, 0.0],
    [0.0, 0.0, 0.0, 1.0]
],
  "dcmmeta_shape": [110, 110, 64, 357],
  "dcmmeta_slice_dim": 2,
  "dcmmeta_version": 0.6,
  "global": {
    "const": {
      "AcquisitionMatrix": [0, 110, 110, 0],
      "AngioFlag": "N",
      "BitsAllocated": 16,
      "BitsStored": 12,
      "Columns": 880,
      "EchoNumbers": 1,
      "EchoTime": 30.0,
      "EchoTrainLength": 1,
      "FlipAngle": 85.0,
      "HighBit": 11,
      "ImageOrientationPatient": [0.99978209426087, 0.00258053908577, 0.02071484524127, 1.144989e-10, 0.99232977060886, -0.1236188754332],
      "ImagePositionPatient": [-1025.8606280084, -1034.090517827, 49.518266273949],
      "ImageType": [
        "ORIGINAL",
        "PRIMARY",
        "FMRI",
        "NONE",
        "MB",
        "ND",
        "MOSAIC"
],
      "ImagedNucleus": "1H",
      "ImagingFrequency": 123.177356,
      "InPlanePhaseEncodingDirection": "ROW",
      "MRAcquisitionType": "2D",
      "MagneticFieldStrength": 3.0,
      "Manufacturer": "SIEMENS",
      "ManufacturerModelName": "TrioTim",
      "Modality": "MR",
      "NumberOfAverages": 1.0,
      "NumberOfPhaseEncodingSteps": 110,
      "PercentPhaseFieldOfView": 100.0,
      "PercentSampling": 100.0,
      "PerformedProcedureStepStartTime": "131219.578000",
      "PhotometricInterpretation": "MONOCHROME2",
      "PixelBandwidth": 1748.0,
      "PixelRepresentation": 0,
      "PixelSpacing": [2.3272726535797, 2.3272726535797],
      "ProtocolName": "WMGNG2_MB4_LR_SBRef",
      "ReferencedPerformedProcedureStepSequence": [
        {
          "ReferencedSOPClassUID": "1.2.840.10008.3.1.2.3.3",
          "ReferencedSOPInstanceUID": "1.3.12.2.1107.5.2.32.35422.30000020111104121962500000000"}
],
      "RepetitionTime": 1500.0,
      "Rows": 880,
      "SAR": 0.11937280647665,
      "SamplesPerPixel": 1,
      "ScanOptions": "FS",
      "ScanningSequence": "EP",
      "SequenceName": "epfid2d1_110",
      "SequenceVariant": [
        "SK",
        "SS"
],
      "SeriesDescription": "WMGNG2_MB4_LR_SBRef",
      "SeriesNumber": 20,
      "SeriesTime": "140327.859000",
      "SliceLocation": -57.262708515856,
      "SliceThickness": 2.2999999523163,
      "SmallestImagePixelValue": 0,
      "SoftwareVersions": "syngo MR B17",
      "SpacingBetweenSlices": 2.3000000066898,
      "SpecificCharacterSet": "ISO_IR 100",
      "StudyID": "1",
      "StudyTime": "131219.453000",
      "TransmitCoilName": "Body",
      "VariableFlipAngleFlag": "N",
      "WindowCenterWidthExplanation": "Algo1",
      "dBdt": 0.0},
    "slices": {}
  },
  "time": {
    "samples": {
      "AcquisitionNumber": [1, 2, 3, 4, 5, 6, 7, 8, 9, 10, 11, 12, 13, 14, 15, 16, 17, 18, 19, 20, 21, 22, 23, 24, 25, 26, 27, 28, 29, 30, 31, 32, 33, 34, 35, 36, 37, 38, 39, 40, 41, 42, 43, 44, 45, 46, 47, 48, 49, 50, 51, 52, 53, 54, 55, 56, 57, 58, 59, 60, 61, 62, 63, 64, 65, 66, 67, 68, 69, 70, 71, 72, 73, 74, 75, 76, 77, 78, 79, 80, 81, 82, 83, 84, 85, 86, 87, 88, 89, 90, 91, 92, 93, 94, 95, 96, 97, 98, 99, 100, 101, 102, 103, 104, 105, 106, 107, 108, 109, 110, 111, 112, 113, 114, 115, 116, 117, 118, 119, 120, 121, 122, 123, 124, 125, 126, 127, 128, 129, 130, 131, 132, 133, 134, 135, 136, 137, 138, 139, 140, 141, 142, 143, 144, 145, 146, 147, 148, 149, 150, 151, 152, 153, 154, 155, 156, 157, 158, 159, 160, 161, 162, 163, 164, 165, 166, 167, 168, 169, 170, 171, 172, 173, 174, 175, 176, 177, 178, 179, 180, 181, 182, 183, 184, 185, 186, 187, 188, 189, 190, 191, 192, 193, 194, 195, 196, 197, 198, 199, 200, 201, 202, 203, 204, 205, 206, 207, 208, 209, 210, 211, 212, 213, 214, 215, 216, 217, 218, 219, 220, 221, 222, 223, 224, 225, 226, 227, 228, 229, 230, 231, 232, 233, 234, 235, 236, 237, 238, 239, 240, 241, 242, 243, 244, 245, 246, 247, 248, 249, 250, 251, 252, 253, 254, 255, 256, 257, 258, 259, 260, 261, 262, 263, 264, 265, 266, 267, 268, 269, 270, 271, 272, 273, 274, 275, 276, 277, 278, 279, 280, 281, 282, 283, 284, 285, 286, 287, 288, 289, 290, 291, 292, 293, 294, 295, 296, 297, 298, 299, 300, 301, 302, 303, 304, 305, 306, 307, 308, 309, 310, 311, 312, 313, 314, 315, 316, 317, 318, 319, 320, 321, 322, 323, 324, 325, 326, 327, 328, 329, 330, 331, 332, 333, 334, 335, 336, 337, 338, 339, 340, 341, 342, 343, 344, 345, 346, 347, 348, 349, 350, 351, 352, 353, 354, 355, 356, 357],
      "AcquisitionTime": ["135253.080000", "135254.585000", "135256.090000", "135257.597500", "135259.102500", "135300.610000", "135302.115000", "135303.622500", "135305.127500", "135306.632500", "135308.140000", "135309.645000", "135311.152500", "135312.657500", "135314.162500", "135315.670000", "135317.175000", "135318.682500", "135320.187500", "135321.692500", "135323.200000", "135324.705000", "135326.212500", "135327.717500", "135329.225000", "135330.730000", "135332.235000", "135333.742500", "135335.247500", "135336.755000", "135338.260000", "135339.765000", "135341.272500", "135342.777500", "135344.285000", "135345.790000", "135347.295000", "135348.802500", "135350.307500", "135351.815000", "135353.320000", "135354.825000", "135356.332500", "135357.837500", "135359.345000", "135400.850000", "135402.357500", "135403.862500", "135405.367500", "135406.875000", "135408.380000", "135409.887500", "135411.392500", "135412.897500", "135414.405000", "135415.910000", "135417.417500", "135418.922500", "135420.427500", "135421.935000", "135423.440000", "135424.947500", "135426.452500", "135427.957500", "135429.465000", "135430.970000", "135432.477500", "135433.982500", "135435.490000", "135436.995000", "135438.500000", "135440.007500", "135441.512500", "135443.020000", "135444.525000", "135446.030000", "135447.537500", "135449.042500", "135450.550000", "135452.055000", "135453.560000", "135455.067500", "135456.572500", "135458.080000", "135459.585000", "135501.090000", "135502.597500", "135504.102500", "135505.610000", "135507.115000", "135508.622500", "135510.127500", "135511.632500", "135513.140000", "135514.645000", "135516.152500", "135517.657500", "135519.162500", "135520.670000", "135522.175000", "135523.682500", "135525.187500", "135526.692500", "135528.200000", "135529.705000", "135531.212500", "135532.717500", "135534.225000", "135535.730000", "135537.235000", "135538.742500", "135540.247500", "135541.755000", "135543.260000", "135544.765000", "135546.272500", "135547.777500", "135549.285000", "135550.790000", "135552.295000", "135553.802500", "135555.307500", "135556.815000", "135558.320000", "135559.825000", "135601.332500", "135602.837500", "135604.345000", "135605.850000", "135607.357500", "135608.862500", "135610.367500", "135611.875000", "135613.380000", "135614.887500", "135616.392500", "135617.897500", "135619.405000", "135620.910000", "135622.417500", "135623.922500", "135625.427500", "135626.935000", "135628.440000", "135629.947500", "135631.452500", "135632.957500", "135634.465000", "135635.970000", "135637.477500", "135638.982500", "135640.490000", "135641.995000", "135643.500000", "135645.007500", "135646.512500", "135648.020000", "135649.525000", "135651.030000", "135652.537500", "135654.042500", "135655.550000", "135657.055000", "135658.560000", "135700.067500", "135701.572500", "135703.080000", "135704.585000", "135706.090000", "135707.597500", "135709.102500", "135710.610000", "135712.115000", "135713.622500", "135715.127500", "135716.632500", "135718.140000", "135719.645000", "135721.152500", "135722.657500", "135724.162500", "135725.670000", "135727.175000", "135728.682500", "135730.187500", "135731.692500", "135733.200000", "135734.705000", "135736.212500", "135737.717500", "135739.225000", "135740.730000", "135742.235000", "135743.742500", "135745.247500", "135746.755000", "135748.260000", "135749.765000", "135751.272500", "135752.777500", "135754.285000", "135755.790000", "135757.295000", "135758.802500", "135800.307500", "135801.815000", "135803.320000", "135804.825000", "135806.332500", "135807.837500", "135809.345000", "135810.850000", "135812.357500", "135813.862500", "135815.367500", "135816.875000", "135818.380000", "135819.887500", "135821.392500", "135822.897500", "135824.405000", "135825.910000", "135827.417500", "135828.922500", "135830.427500", "135831.935000", "135833.440000", "135834.947500", "135836.452500", "135837.957500", "135839.465000", "135840.970000", "135842.477500", "135843.982500", "135845.490000", "135846.995000", "135848.500000", "135850.007500", "135851.512500", "135853.020000", "135854.525000", "135856.030000", "135857.537500", "135859.042500", "135900.550000", "135902.055000", "135903.560000", "135905.067500", "135906.572500", "135908.080000", "135909.585000", "135911.090000", "135912.597500", "135914.102500", "135915.610000", "135917.115000", "135918.622500", "135920.127500", "135921.632500", "135923.140000", "135924.645000", "135926.152500", "135927.657500", "135929.162500", "135930.670000", "135932.175000", "135933.682500", "135935.187500", "135936.692500", "135938.200000", "135939.705000", "135941.212500", "135942.717500", "135944.225000", "135945.730000", "135947.235000", "135948.742500", "135950.247500", "135951.755000", "135953.260000", "135954.765000", "135956.272500", "135957.777500", "135959.285000", "140000.790000", "140002.295000", "140003.802500", "140005.307500", "140006.815000", "140008.320000", "140009.825000", "140011.332500", "140012.837500", "140014.345000", "140015.850000", "140017.357500", "140018.862500", "140020.367500", "140021.875000", "140023.380000", "140024.887500", "140026.392500", "140027.897500", "140029.405000", "140030.910000", "140032.417500", "140033.922500", "140035.427500", "140036.935000", "140038.440000", "140039.947500", "140041.452500", "140042.957500", "140044.465000", "140045.970000", "140047.477500", "140048.982500", "140050.490000", "140051.995000", "140053.500000", "140055.007500", "140056.512500", "140058.020000", "140059.525000", "140101.030000", "140102.537500", "140104.042500", "140105.550000", "140107.055000", "140108.560000", "140110.067500", "140111.572500", "140113.080000", "140114.585000", "140116.090000", "140117.597500", "140119.102500", "140120.610000", "140122.115000", "140123.622500", "140125.127500", "140126.632500", "140128.140000", "140129.645000", "140131.152500", "140132.657500", "140134.162500", "140135.670000", "140137.175000", "140138.682500", "140140.187500", "140141.692500", "140143.200000", "140144.705000", "140146.212500", "140147.717500", "140149.225000"],
      "ContentTime": ["140327.859000", "140329.343000", "140330.843000", "140333.343000", "140335.343000", "140337.843000", "140340.343000", "140341.843000", "140344.343000", "140347.343000", "140349.343000", "140351.343000", "140353.343000", "140356.843000", "140358.343000", "140400.843000", "140402.843000", "140405.343000", "140407.343000", "140409.343000", "140412.343000", "140414.343000", "140416.843000", "140418.843000", "140421.343000", "140423.843000", "140425.843000", "140428.343000", "140430.343000", "140432.843000", "140434.843000", "140437.343000", "140439.843000", "140441.843000", "140444.343000", "140446.343000", "140448.843000", "140451.343000", "140453.343000", "140455.843000", "140457.843000", "140500.343000", "140502.843000", "140504.843000", "140507.343000", "140509.843000", "140511.843000", "140514.343000", "140516.843000", "140518.843000", "140521.343000", "140523.843000", "140525.843000", "140528.343000", "140530.843000", "140532.843000", "140535.343000", "140537.843000", "140539.843000", "140542.343000", "140544.843000", "140546.343000", "140548.843000", "140551.343000", "140553.843000", "140556.343000", "140558.343000", "140600.843000", "140602.843000", "140605.343000", "140607.343000", "140609.843000", "140612.343000", "140614.343000", "140616.843000", "140619.343000", "140621.343000", "140623.843000", "140626.343000", "140628.343000", "140630.843000", "140632.843000", "140635.343000", "140637.843000", "140639.843000", "140642.343000", "140644.343000", "140646.843000", "140649.343000", "140651.343000", "140653.843000", "140655.843000", "140658.843000", "140700.843000", "140702.843000", "140705.343000", "140707.343000", "140709.843000", "140711.843000", "140714.343000", "140716.343000", "140718.843000", "140721.343000", "140723.343000", "140725.343000", "140727.843000", "140730.343000", "140732.843000", "140734.843000", "140737.843000", "140739.843000", "140742.343000", "140744.343000", "140746.343000", "140748.843000", "140751.343000", "140753.343000", "140755.843000", "140757.843000", "140800.843000", "140802.843000", "140805.343000", "140807.343000", "140809.843000", "140812.343000", "140814.343000", "140816.343000", "140818.843000", "140821.343000", "140823.843000", "140825.843000", "140828.343000", "140830.843000", "140832.843000", "140835.343000", "140837.843000", "140839.843000", "140842.343000", "140844.343000", "140846.843000", "140849.343000", "140851.343000", "140853.843000", "140855.843000", "140858.343000", "140900.843000", "140902.843000", "140905.343000", "140907.843000", "140909.843000", "140912.343000", "140914.343000", "140916.843000", "140918.843000", "140921.343000", "140923.843000", "140925.843000", "140928.343000", "140930.343000", "140932.843000", "140935.343000", "140937.343000", "140939.843000", "140942.343000", "140944.843000", "140946.843000", "140949.343000", "140951.343000", "140953.843000", "140956.343000", "140958.843000", "141000.843000", "141003.843000", "141005.843000", "141007.843000", "141010.343000", "141012.843000", "141015.343000", "141017.343000", "141019.343000", "141021.843000", "141024.343000", "141026.343000", "141028.843000", "141030.843000", "141033.343000", "141035.843000", "141038.343000", "141040.343000", "141042.843000", "141045.343000", "141047.843000", "141049.843000", "141052.343000", "141054.343000", "141056.843000", "141058.843000", "141101.343000", "141103.843000", "141106.343000", "141108.343000", "141110.343000", "141112.843000", "141115.343000", "141117.843000", "141119.843000", "141122.343000", "141124.343000", "141126.843000", "141128.843000", "141131.843000", "141133.843000", "141136.343000", "141138.343000", "141140.843000", "141143.343000", "141145.343000", "141147.843000", "141149.843000", "141152.343000", "141154.343000", "141156.843000", "141158.843000", "141201.843000", "141203.843000", "141206.343000", "141208.343000", "141210.843000", "141212.843000", "141215.343000", "141217.343000", "141219.843000", "141221.843000", "141224.343000", "141226.343000", "141228.843000", "141231.343000", "141233.343000", "141236.343000", "141238.343000", "141240.843000", "141242.843000", "141245.343000", "141247.343000", "141249.843000", "141251.843000", "141254.343000", "141256.843000", "141258.843000", "141300.843000", "141303.343000", "141306.343000", "141308.343000", "141310.343000", "141312.843000", "141315.343000", "141317.343000", "141319.843000", "141321.843000", "141324.843000", "141326.843000", "141329.343000", "141331.343000", "141333.343000", "141335.843000", "141337.843000", "141340.343000", "141342.843000", "141345.343000", "141347.343000", "141349.843000", "141351.843000", "141354.343000", "141356.343000", "141358.343000", "141401.343000", "141403.343000", "141405.843000", "141407.843000", "141409.843000", "141412.343000", "141414.843000", "141417.343000", "141419.343000", "141421.859000", "141423.859000", "141425.843000", "141428.343000", "141430.843000", "141433.343000", "141435.343000", "141437.843000", "141440.343000", "141442.343000", "141444.843000", "141446.843000", "141449.343000", "141451.343000", "141454.343000", "141455.843000", "141458.343000", "141500.343000", "141503.343000", "141505.343000", "141507.843000", "141510.343000", "141512.343000", "141514.343000", "141516.843000", "141519.343000", "141521.343000", "141523.843000", "141526.343000", "141528.343000", "141530.843000", "141532.843000", "141535.343000", "141537.843000", "141539.843000", "141542.343000", "141544.843000", "141547.343000", "141549.343000", "141551.843000", "141553.843000", "141556.343000", "141558.343000", "141600.843000", "141602.843000", "141605.343000", "141607.343000", "141609.843000", "141612.343000", "141614.343000", "141616.843000", "141619.343000", "141621.343000", "141623.843000", "141626.343000", "141628.843000", "141630.843000", "141633.343000", "141635.843000", "141637.843000", "141640.343000", "141642.843000", "141644.843000", "141646.843000", "141649.843000", "141651.843000", "141654.343000", "141656.343000", "141658.843000", "141700.843000", "141703.343000", "141705.343000", "141707.343000"],
      "DataSetTrailingPadding": [
        "\u0000\u0000\u0000\u0000\u0000\u0000\u0000\u0000\u0000\u0000\u0000\u0000\u0000\u0000\u0000\u0000\u0000\u0000\u0000\u0000\u0000\u0000\u0000\u0000\u0000\u0000\u0000\u0000\u0000\u0000\u0000\u0000\u0000\u0000\u0000\u0000\u0000\u0000\u0000\u0000\u0000\u0000\u0000\u0000\u0000\u0000\u0000\u0000\u0000\u0000\u0000\u0000\u0000\u0000\u0000\u0000\u0000\u0000\u0000\u0000\u0000\u0000\u0000\u0000\u0000\u0000\u0000\u0000\u0000\u0000\u0000\u0000\u0000\u0000\u0000\u0000\u0000\u0000\u0000\u0000\u0000\u0000\u0000\u0000\u0000\u0000\u0000\u0000\u0000\u0000\u0000\u0000\u0000\u0000",
        "\u0000\u0000\u0000\u0000\u0000\u0000\u0000\u0000\u0000\u0000\u0000\u0000\u0000\u0000\u0000\u0000\u0000\u0000\u0000\u0000\u0000\u0000\u0000\u0000\u0000\u0000\u0000\u0000\u0000\u0000\u0000\u0000\u0000\u0000\u0000\u0000\u0000\u0000\u0000\u0000\u0000\u0000\u0000\u0000\u0000\u0000\u0000\u0000\u0000\u0000\u0000\u0000\u0000\u0000\u0000\u0000\u0000\u0000\u0000\u0000\u0000\u0000\u0000\u0000\u0000\u0000\u0000\u0000\u0000\u0000\u0000\u0000\u0000\u0000\u0000\u0000\u0000\u0000\u0000\u0000\u0000\u0000\u0000\u0000\u0000\u0000\u0000\u0000\u0000\u0000\u0000\u0000",
        "\u0000\u0000\u0000\u0000\u0000\u0000\u0000\u0000\u0000\u0000\u0000\u0000\u0000\u0000\u0000\u0000\u0000\u0000\u0000\u0000\u0000\u0000\u0000\u0000\u0000\u0000\u0000\u0000\u0000\u0000\u0000\u0000\u0000\u0000\u0000\u0000\u0000\u0000\u0000\u0000\u0000\u0000\u0000\u0000\u0000\u0000\u0000\u0000\u0000\u0000\u0000\u0000\u0000\u0000\u0000\u0000\u0000\u0000\u0000\u0000\u0000\u0000\u0000\u0000\u0000\u0000\u0000\u0000\u0000\u0000\u0000\u0000\u0000\u0000\u0000\u0000\u0000\u0000\u0000\u0000\u0000\u0000\u0000\u0000\u0000\u0000\u0000\u0000\u0000\u0000\u0000\u0000",
        "\u0000\u0000\u0000\u0000\u0000\u0000\u0000\u0000\u0000\u0000\u0000\u0000\u0000\u0000\u0000\u0000\u0000\u0000\u0000\u0000\u0000\u0000\u0000\u0000\u0000\u0000\u0000\u0000\u0000\u0000\u0000\u0000\u0000\u0000\u0000\u0000\u0000\u0000\u0000\u0000\u0000\u0000\u0000\u0000\u0000\u0000\u0000\u0000\u0000\u0000\u0000\u0000\u0000\u0000\u0000\u0000\u0000\u0000\u0000\u0000\u0000\u0000\u0000\u0000\u0000\u0000\u0000\u0000\u0000\u0000\u0000\u0000\u0000\u0000\u0000\u0000\u0000\u0000\u0000\u0000\u0000\u0000\u0000\u0000\u0000\u0000\u0000\u0000\u0000\u0000\u0000\u0000\u0000\u0000",
        "\u0000\u0000\u0000\u0000\u0000\u0000\u0000\u0000\u0000\u0000\u0000\u0000\u0000\u0000\u0000\u0000\u0000\u0000\u0000\u0000\u0000\u0000\u0000\u0000\u0000\u0000\u0000\u0000\u0000\u0000\u0000\u0000\u0000\u0000\u0000\u0000\u0000\u0000\u0000\u0000\u0000\u0000\u0000\u0000\u0000\u0000\u0000\u0000\u0000\u0000\u0000\u0000\u0000\u0000\u0000\u0000\u0000\u0000\u0000\u0000\u0000\u0000\u0000\u0000\u0000\u0000\u0000\u0000\u0000\u0000\u0000\u0000\u0000\u0000\u0000\u0000\u0000\u0000\u0000\u0000\u0000\u0000\u0000\u0000\u0000\u0000\u0000\u0000\u0000\u0000\u0000\u0000\u0000\u0000",
        "\u0000\u0000\u0000\u0000\u0000\u0000\u0000\u0000\u0000\u0000\u0000\u0000\u0000\u0000\u0000\u0000\u0000\u0000\u0000\u0000\u0000\u0000\u0000\u0000\u0000\u0000\u0000\u0000\u0000\u0000\u0000\u0000\u0000\u0000\u0000\u0000\u0000\u0000\u0000\u0000\u0000\u0000\u0000\u0000\u0000\u0000\u0000\u0000\u0000\u0000\u0000\u0000\u0000\u0000\u0000\u0000\u0000\u0000\u0000\u0000\u0000\u0000\u0000\u0000\u0000\u0000\u0000\u0000\u0000\u0000\u0000\u0000\u0000\u0000\u0000\u0000\u0000\u0000\u0000\u0000\u0000\u0000\u0000\u0000\u0000\u0000\u0000\u0000\u0000\u0000\u0000\u0000\u0000\u0000",
        "\u0000\u0000\u0000\u0000\u0000\u0000\u0000\u0000\u0000\u0000\u0000\u0000\u0000\u0000\u0000\u0000\u0000\u0000\u0000\u0000\u0000\u0000\u0000\u0000\u0000\u0000\u0000\u0000\u0000\u0000\u0000\u0000\u0000\u0000\u0000\u0000\u0000\u0000\u0000\u0000\u0000\u0000\u0000\u0000\u0000\u0000\u0000\u0000\u0000\u0000\u0000\u0000\u0000\u0000\u0000\u0000\u0000\u0000\u0000\u0000\u0000\u0000\u0000\u0000\u0000\u0000\u0000\u0000\u0000\u0000\u0000\u0000\u0000\u0000\u0000\u0000\u0000\u0000\u0000\u0000\u0000\u0000\u0000\u0000\u0000\u0000\u0000\u0000\u0000\u0000\u0000\u0000",
        "\u0000\u0000\u0000\u0000\u0000\u0000\u0000\u0000\u0000\u0000\u0000\u0000\u0000\u0000\u0000\u0000\u0000\u0000\u0000\u0000\u0000\u0000\u0000\u0000\u0000\u0000\u0000\u0000\u0000\u0000\u0000\u0000\u0000\u0000\u0000\u0000\u0000\u0000\u0000\u0000\u0000\u0000\u0000\u0000\u0000\u0000\u0000\u0000\u0000\u0000\u0000\u0000\u0000\u0000\u0000\u0000\u0000\u0000\u0000\u0000\u0000\u0000\u0000\u0000\u0000\u0000\u0000\u0000\u0000\u0000\u0000\u0000\u0000\u0000\u0000\u0000\u0000\u0000\u0000\u0000\u0000\u0000\u0000\u0000\u0000\u0000\u0000\u0000\u0000\u0000\u0000\u0000",
        "\u0000\u0000\u0000\u0000\u0000\u0000\u0000\u0000\u0000\u0000\u0000\u0000\u0000\u0000\u0000\u0000\u0000\u0000\u0000\u0000\u0000\u0000\u0000\u0000\u0000\u0000\u0000\u0000\u0000\u0000\u0000\u0000\u0000\u0000\u0000\u0000\u0000\u0000\u0000\u0000\u0000\u0000\u0000\u0000\u0000\u0000\u0000\u0000\u0000\u0000\u0000\u0000\u0000\u0000\u0000\u0000\u0000\u0000\u0000\u0000\u0000\u0000\u0000\u0000\u0000\u0000\u0000\u0000\u0000\u0000\u0000\u0000\u0000\u0000\u0000\u0000\u0000\u0000\u0000\u0000\u0000\u0000\u0000\u0000\u0000\u0000\u0000\u0000\u0000\u0000\u0000\u0000\u0000\u0000",
        "\u0000\u0000\u0000\u0000\u0000\u0000\u0000\u0000\u0000\u0000\u0000\u0000\u0000\u0000\u0000\u0000\u0000\u0000\u0000\u0000\u0000\u0000\u0000\u0000\u0000\u0000\u0000\u0000\u0000\u0000\u0000\u0000\u0000\u0000\u0000\u0000\u0000\u0000\u0000\u0000\u0000\u0000\u0000\u0000\u0000\u0000\u0000\u0000\u0000\u0000\u0000\u0000\u0000\u0000\u0000\u0000\u0000\u0000\u0000\u0000\u0000\u0000\u0000\u0000\u0000\u0000\u0000\u0000\u0000\u0000\u0000\u0000\u0000\u0000\u0000\u0000\u0000\u0000\u0000\u0000\u0000\u0000\u0000\u0000\u0000\u0000\u0000\u0000\u0000\u0000",
        "\u0000\u0000\u0000\u0000\u0000\u0000\u0000\u0000\u0000\u0000\u0000\u0000\u0000\u0000\u0000\u0000\u0000\u0000\u0000\u0000\u0000\u0000\u0000\u0000\u0000\u0000\u0000\u0000\u0000\u0000\u0000\u0000\u0000\u0000\u0000\u0000\u0000\u0000\u0000\u0000\u0000\u0000\u0000\u0000\u0000\u0000\u0000\u0000\u0000\u0000\u0000\u0000\u0000\u0000\u0000\u0000\u0000\u0000\u0000\u0000\u0000\u0000\u0000\u0000\u0000\u0000\u0000\u0000\u0000\u0000\u0000\u0000\u0000\u0000\u0000\u0000\u0000\u0000\u0000\u0000\u0000\u0000\u0000\u0000\u0000\u0000\u0000\u0000\u0000\u0000",
        "\u0000\u0000\u0000\u0000\u0000\u0000\u0000\u0000\u0000\u0000\u0000\u0000\u0000\u0000\u0000\u0000\u0000\u0000\u0000\u0000\u0000\u0000\u0000\u0000\u0000\u0000\u0000\u0000\u0000\u0000\u0000\u0000\u0000\u0000\u0000\u0000\u0000\u0000\u0000\u0000\u0000\u0000\u0000\u0000\u0000\u0000\u0000\u0000\u0000\u0000\u0000\u0000\u0000\u0000\u0000\u0000\u0000\u0000\u0000\u0000\u0000\u0000\u0000\u0000\u0000\u0000\u0000\u0000\u0000\u0000\u0000\u0000\u0000\u0000\u0000\u0000\u0000\u0000\u0000\u0000\u0000\u0000\u0000\u0000\u0000\u0000\u0000\u0000",
        "\u0000\u0000\u0000\u0000\u0000\u0000\u0000\u0000\u0000\u0000\u0000\u0000\u0000\u0000\u0000\u0000\u0000\u0000\u0000\u0000\u0000\u0000\u0000\u0000\u0000\u0000\u0000\u0000\u0000\u0000\u0000\u0000\u0000\u0000\u0000\u0000\u0000\u0000\u0000\u0000\u0000\u0000\u0000\u0000\u0000\u0000\u0000\u0000\u0000\u0000\u0000\u0000\u0000\u0000\u0000\u0000\u0000\u0000\u0000\u0000\u0000\u0000\u0000\u0000\u0000\u0000\u0000\u0000\u0000\u0000\u0000\u0000\u0000\u0000\u0000\u0000\u0000\u0000\u0000\u0000\u0000\u0000\u0000\u0000\u0000\u0000\u0000\u0000",
        "\u0000\u0000\u0000\u0000\u0000\u0000\u0000\u0000\u0000\u0000\u0000\u0000\u0000\u0000\u0000\u0000\u0000\u0000\u0000\u0000\u0000\u0000\u0000\u0000\u0000\u0000\u0000\u0000\u0000\u0000\u0000\u0000\u0000\u0000\u0000\u0000\u0000\u0000\u0000\u0000\u0000\u0000\u0000\u0000\u0000\u0000\u0000\u0000\u0000\u0000\u0000\u0000\u0000\u0000\u0000\u0000\u0000\u0000\u0000\u0000\u0000\u0000\u0000\u0000\u0000\u0000\u0000\u0000\u0000\u0000\u0000\u0000\u0000\u0000\u0000\u0000\u0000\u0000\u0000\u0000\u0000\u0000\u0000\u0000\u0000\u0000\u0000\u0000\u0000\u0000",
        "\u0000\u0000\u0000\u0000\u0000\u0000\u0000\u0000\u0000\u0000\u0000\u0000\u0000\u0000\u0000\u0000\u0000\u0000\u0000\u0000\u0000\u0000\u0000\u0000\u0000\u0000\u0000\u0000\u0000\u0000\u0000\u0000\u0000\u0000\u0000\u0000\u0000\u0000\u0000\u0000\u0000\u0000\u0000\u0000\u0000\u0000\u0000\u0000\u0000\u0000\u0000\u0000\u0000\u0000\u0000\u0000\u0000\u0000\u0000\u0000\u0000\u0000\u0000\u0000\u0000\u0000\u0000\u0000\u0000\u0000\u0000\u0000\u0000\u0000\u0000\u0000\u0000\u0000\u0000\u0000\u0000\u0000\u0000\u0000\u0000\u0000\u0000\u0000\u0000\u0000",
        "\u0000\u0000\u0000\u0000\u0000\u0000\u0000\u0000\u0000\u0000\u0000\u0000\u0000\u0000\u0000\u0000\u0000\u0000\u0000\u0000\u0000\u0000\u0000\u0000\u0000\u0000\u0000\u0000\u0000\u0000\u0000\u0000\u0000\u0000\u0000\u0000\u0000\u0000\u0000\u0000\u0000\u0000\u0000\u0000\u0000\u0000\u0000\u0000\u0000\u0000\u0000\u0000\u0000\u0000\u0000\u0000\u0000\u0000\u0000\u0000\u0000\u0000\u0000\u0000\u0000\u0000\u0000\u0000\u0000\u0000\u0000\u0000\u0000\u0000\u0000\u0000\u0000\u0000\u0000\u0000\u0000\u0000\u0000\u0000\u0000\u0000\u0000\u0000\u0000\u0000",
        "\u0000\u0000\u0000\u0000\u0000\u0000\u0000\u0000\u0000\u0000\u0000\u0000\u0000\u0000\u0000\u0000\u0000\u0000\u0000\u0000\u0000\u0000\u0000\u0000\u0000\u0000\u0000\u0000\u0000\u0000\u0000\u0000\u0000\u0000\u0000\u0000\u0000\u0000\u0000\u0000\u0000\u0000\u0000\u0000\u0000\u0000\u0000\u0000\u0000\u0000\u0000\u0000\u0000\u0000\u0000\u0000\u0000\u0000\u0000\u0000\u0000\u0000\u0000\u0000\u0000\u0000\u0000\u0000\u0000\u0000\u0000\u0000\u0000\u0000\u0000\u0000\u0000\u0000\u0000\u0000\u0000\u0000\u0000\u0000\u0000\u0000\u0000\u0000",
        "\u0000\u0000\u0000\u0000\u0000\u0000\u0000\u0000\u0000\u0000\u0000\u0000\u0000\u0000\u0000\u0000\u0000\u0000\u0000\u0000\u0000\u0000\u0000\u0000\u0000\u0000\u0000\u0000\u0000\u0000\u0000\u0000\u0000\u0000\u0000\u0000\u0000\u0000\u0000\u0000\u0000\u0000\u0000\u0000\u0000\u0000\u0000\u0000\u0000\u0000\u0000\u0000\u0000\u0000\u0000\u0000\u0000\u0000\u0000\u0000\u0000\u0000\u0000\u0000\u0000\u0000\u0000\u0000\u0000\u0000\u0000\u0000\u0000\u0000\u0000\u0000\u0000\u0000\u0000\u0000\u0000\u0000\u0000\u0000\u0000\u0000\u0000\u0000\u0000\u0000\u0000\u0000",
