{
  "AcquisitionMatrixPE": 110,
  "AcquisitionNumber": 1,
  "AcquisitionTime": "13:27:53.740000",
  "BandwidthPerPixelPhaseEncode": 26.35,
  "BaseResolution": 110,
  "CoilString": "C:HEA;HEP",
  "ConversionSoftware": "dcm2niix",
  "ConversionSoftwareVersion": "v1.0.20190410  GCC6.3.0",
  "DerivedVendorReportedEchoSpacing": 0.000690012,
  "DeviceSerialNumber": "35422",
  "DwellTime": 2.6e-06,
  "EchoTime": 0.03,
  "EffectiveEchoSpacing": 0.000345006,
  "FlipAngle": 85,
  "ImageComments": "Unaliased_MB4_PE4_LB",
  "ImageOrientationPatientDICOM": [0.999782, 0.000765302, 0.0208609, 2.3029e-10, 0.999328, -0.0366612],
  "ImageType": [
    "ORIGINAL",
    "PRIMARY",
    "FMRI",
    "NONE",
    "MB",
    "ND",
    "MOSAIC"
],
  "ImagingFrequency": 123.177,
  "InPlanePhaseEncodingDirectionDICOM": "ROW",
  "InstitutionAddress": "kwanakro_599_C6F879_Seoul_KR_ZIP",
  "InstitutionName": "SNUBIC",
  "InstitutionalDepartmentName": "Department",
  "MRAcquisitionType": "2D",
  "MagneticFieldStrength": 3,
  "Manufacturer": "Siemens",
  "ManufacturersModelName": "TrioTim",
  "Modality": "MR",
  "MultibandAccelerationFactor": 4,
  "ParallelReductionFactorInPlane": 2,
  "PartialFourier": 1,
  "PatientPosition": "HFS",
  "PercentPhaseFOV": 100,
  "PhaseEncodingDirection": "i-",
  "PhaseEncodingSteps": 110,
  "PhaseResolution": 1,
  "PixelBandwidth": 1748,
  "ProcedureStepDescription": "SNU_SAVED",
  "ProtocolName": "GNG2_MB4_LR_SBRef",
  "PulseSequenceDetails": "%CustomerSeq%_cmrr_mbep2d_bold",
  "ReceiveCoilName": "32Ch_Head",
  "ReconMatrixPE": 110,
  "RefLinesPE": 32,
  "RepetitionTime": 1.5,
  "SAR": 0.108665,
  "ScanOptions": "FS",
  "ScanningSequence": "EP",
  "SequenceName": "epfid2d1_110",
  "SequenceVariant": "SK_SS",
  "SeriesDescription": "GNG2_MB4_LR_SBRef",
  "SeriesNumber": 10,
  "ShimSetting": [-4150, -29826, -2035, 896, -108, 265, 236, -55],
  "SliceThickness": 2.3,
  "SliceTiming": [0, 0.66, 1.3175, 0.47, 1.13, 0.2825, 0.9425, 0.095, 0.7525, 1.4125, 0.565, 1.225, 0.3775, 1.035, 0.1875, 0.8475, 0, 0.66, 1.3175, 0.47, 1.13, 0.2825, 0.9425, 0.095, 0.7525, 1.4125, 0.565, 1.225, 0.3775, 1.035, 0.1875, 0.8475, 0, 0.66, 1.3175, 0.47, 1.13, 0.2825, 0.9425, 0.095, 0.7525, 1.4125, 0.565, 1.225, 0.3775, 1.035, 0.1875, 0.8475, 0, 0.66, 1.3175, 0.47, 1.13, 0.2825, 0.9425, 0.095, 0.7525, 1.4125, 0.565, 1.225, 0.3775, 1.035, 0.1875, 0.8475],
  "SoftwareVersions": "syngo_MR_B17",
  "SpacingBetweenSlices": 2.3,
  "StationName": "MRC35422",
  "TaskName": "gng",
  "TotalReadoutTime": 0.0376057,
  "TxRefAmp": 295.487,
  "dcmmeta_affine": [
    [-2.326765537261963, 5.3594689797265e-10, 0.04801241308450699, 130.05589294433594],
    [-0.0017810655990615487, 2.3257081508636475, -0.08430246263742447, -117.74225616455078],
    [0.048549070954322815, 0.08532068878412247, 2.297952890396118, -44.13555908203125],
    [0.0, 0.0, 0.0, 1.0]
],
  "dcmmeta_reorient_transform": [
    [0.0, -1.0, 0.0, 109.0],
    [1.0, 0.0, 0.0, 0.0],
    [0.0, 0.0, 1.0, 0.0],
    [0.0, 0.0, 0.0, 1.0]
],
  "dcmmeta_shape": [110, 110, 64, 277],
  "dcmmeta_slice_dim": 2,
  "dcmmeta_version": 0.6,
  "global": {
    "const": {
      "AcquisitionMatrix": [0, 110, 110, 0],
      "AngioFlag": "N",
      "BitsAllocated": 16,
      "BitsStored": 12,
      "Columns": 880,
      "EchoNumbers": 1,
      "EchoTime": 30.0,
      "EchoTrainLength": 1,
      "FlipAngle": 85.0,
      "HighBit": 11,
      "ImageOrientationPatient": [0.99978209421966, 0.00076530166991, 0.02086092977549, 2.302897e-10, 0.99932775100335, -0.0366612339479],
      "ImagePositionPatient": [-1025.8606280848, -1031.8432817878, -20.678532710457],
      "ImageType": [
        "ORIGINAL",
        "PRIMARY",
        "FMRI",
        "NONE",
        "MB",
        "ND",
        "MOSAIC"
],
      "ImagedNucleus": "1H",
      "ImagingFrequency": 123.177282,
      "InPlanePhaseEncodingDirection": "ROW",
      "MRAcquisitionType": "2D",
      "MagneticFieldStrength": 3.0,
      "Manufacturer": "SIEMENS",
      "ManufacturerModelName": "TrioTim",
      "Modality": "MR",
      "NumberOfAverages": 1.0,
      "NumberOfPhaseEncodingSteps": 110,
      "PercentPhaseFieldOfView": 100.0,
      "PercentSampling": 100.0,
      "PerformedProcedureStepStartTime": "130149.765000",
      "PhotometricInterpretation": "MONOCHROME2",
      "PixelBandwidth": 1748.0,
      "PixelRepresentation": 0,
      "PixelSpacing": [2.3272726535797, 2.3272726535797],
      "ProtocolName": "GNG2_MB4_LR_SBRef",
      "ReferencedPerformedProcedureStepSequence": [
        {
          "ReferencedSOPClassUID": "1.2.840.10008.3.1.2.3.3",
          "ReferencedSOPInstanceUID": "1.3.12.2.1107.5.2.32.35422.30000020060923504445300000002"}
],
      "RepetitionTime": 1500.0,
      "Rows": 880,
      "SAR": 0.10866524599859,
      "SamplesPerPixel": 1,
      "ScanOptions": "FS",
      "ScanningSequence": "EP",
      "SequenceName": "epfid2d1_110",
      "SequenceVariant": [
        "SK",
        "SS"
],
      "SeriesDescription": "GNG2_MB4_LR_SBRef",
      "SeriesNumber": 10,
      "SeriesTime": "133050.765000",
      "SliceLocation": -37.065730927172,
      "SliceThickness": 2.2999999523163,
      "SmallestImagePixelValue": 0,
      "SoftwareVersions": "syngo MR B17",
      "SpacingBetweenSlices": 2.3000000039767,
      "SpecificCharacterSet": "ISO_IR 100",
      "StudyID": "1",
      "StudyTime": "130149.703000",
      "TransmitCoilName": "Body",
      "VariableFlipAngleFlag": "N",
      "WindowCenterWidthExplanation": "Algo1",
      "dBdt": 0.0},
    "slices": {}
  },
  "time": {
    "samples": {
      "AcquisitionNumber": [1, 2, 3, 4, 5, 6, 7, 8, 9, 10, 11, 12, 13, 14, 15, 16, 17, 18, 19, 20, 21, 22, 23, 24, 25, 26, 27, 28, 29, 30, 31, 32, 33, 34, 35, 36, 37, 38, 39, 40, 41, 42, 43, 44, 45, 46, 47, 48, 49, 50, 51, 52, 53, 54, 55, 56, 57, 58, 59, 60, 61, 62, 63, 64, 65, 66, 67, 68, 69, 70, 71, 72, 73, 74, 75, 76, 77, 78, 79, 80, 81, 82, 83, 84, 85, 86, 87, 88, 89, 90, 91, 92, 93, 94, 95, 96, 97, 98, 99, 100, 101, 102, 103, 104, 105, 106, 107, 108, 109, 110, 111, 112, 113, 114, 115, 116, 117, 118, 119, 120, 121, 122, 123, 124, 125, 126, 127, 128, 129, 130, 131, 132, 133, 134, 135, 136, 137, 138, 139, 140, 141, 142, 143, 144, 145, 146, 147, 148, 149, 150, 151, 152, 153, 154, 155, 156, 157, 158, 159, 160, 161, 162, 163, 164, 165, 166, 167, 168, 169, 170, 171, 172, 173, 174, 175, 176, 177, 178, 179, 180, 181, 182, 183, 184, 185, 186, 187, 188, 189, 190, 191, 192, 193, 194, 195, 196, 197, 198, 199, 200, 201, 202, 203, 204, 205, 206, 207, 208, 209, 210, 211, 212, 213, 214, 215, 216, 217, 218, 219, 220, 221, 222, 223, 224, 225, 226, 227, 228, 229, 230, 231, 232, 233, 234, 235, 236, 237, 238, 239, 240, 241, 242, 243, 244, 245, 246, 247, 248, 249, 250, 251, 252, 253, 254, 255, 256, 257, 258, 259, 260, 261, 262, 263, 264, 265, 266, 267, 268, 269, 270, 271, 272, 273, 274, 275, 276, 277],
      "AcquisitionTime": ["132753.740000", "132755.247500", "132756.752500", "132758.257500", "132759.765000", "132801.270000", "132802.777500", "132804.282500", "132805.787500", "132807.295000", "132808.800000", "132810.307500", "132811.812500", "132813.320000", "132814.825000", "132816.330000", "132817.837500", "132819.342500", "132820.850000", "132822.355000", "132823.860000", "132825.367500", "132826.872500", "132828.380000", "132829.885000", "132831.390000", "132832.897500", "132834.402500", "132835.910000", "132837.415000", "132838.920000", "132840.427500", "132841.932500", "132843.440000", "132844.945000", "132846.452500", "132847.957500", "132849.462500", "132850.970000", "132852.475000", "132853.982500", "132855.487500", "132856.992500", "132858.500000", "132900.005000", "132901.512500", "132903.017500", "132904.522500", "132906.030000", "132907.535000", "132909.042500", "132910.547500", "132912.055000", "132913.560000", "132915.065000", "132916.572500", "132918.077500", "132919.585000", "132921.090000", "132922.595000", "132924.102500", "132925.607500", "132927.115000", "132928.620000", "132930.125000", "132931.632500", "132933.137500", "132934.645000", "132936.150000", "132937.655000", "132939.162500", "132940.667500", "132942.175000", "132943.680000", "132945.187500", "132946.692500", "132948.197500", "132949.705000", "132951.210000", "132952.717500", "132954.222500", "132955.727500", "132957.235000", "132958.740000", "133000.247500", "133001.752500", "133003.257500", "133004.765000", "133006.270000", "133007.777500", "133009.282500", "133010.787500", "133012.295000", "133013.800000", "133015.307500", "133016.812500", "133018.320000", "133019.825000", "133021.330000", "133022.837500", "133024.342500", "133025.850000", "133027.355000", "133028.860000", "133030.367500", "133031.872500", "133033.380000", "133034.885000", "133036.390000", "133037.897500", "133039.402500", "133040.910000", "133042.415000", "133043.920000", "133045.427500", "133046.932500", "133048.440000", "133049.945000", "133051.452500", "133052.957500", "133054.462500", "133055.970000", "133057.475000", "133058.982500", "133100.487500", "133101.992500", "133103.500000", "133105.005000", "133106.512500", "133108.017500", "133109.522500", "133111.030000", "133112.535000", "133114.042500", "133115.547500", "133117.055000", "133118.560000", "133120.065000", "133121.572500", "133123.077500", "133124.585000", "133126.090000", "133127.595000", "133129.102500", "133130.607500", "133132.115000", "133133.620000", "133135.125000", "133136.632500", "133138.137500", "133139.645000", "133141.150000", "133142.655000", "133144.162500", "133145.667500", "133147.175000", "133148.680000", "133150.187500", "133151.692500", "133153.197500", "133154.705000", "133156.210000", "133157.717500", "133159.222500", "133200.727500", "133202.235000", "133203.740000", "133205.247500", "133206.752500", "133208.257500", "133209.765000", "133211.270000", "133212.777500", "133214.282500", "133215.787500", "133217.295000", "133218.800000", "133220.307500", "133221.812500", "133223.320000", "133224.825000", "133226.330000", "133227.837500", "133229.342500", "133230.850000", "133232.355000", "133233.860000", "133235.367500", "133236.872500", "133238.380000", "133239.885000", "133241.390000", "133242.897500", "133244.402500", "133245.910000", "133247.415000", "133248.920000", "133250.427500", "133251.932500", "133253.440000", "133254.945000", "133256.452500", "133257.957500", "133259.462500", "133300.970000", "133302.475000", "133303.982500", "133305.487500", "133306.992500", "133308.500000", "133310.005000", "133311.512500", "133313.017500", "133314.522500", "133316.030000", "133317.535000", "133319.042500", "133320.547500", "133322.055000", "133323.560000", "133325.065000", "133326.572500", "133328.077500", "133329.585000", "133331.090000", "133332.595000", "133334.102500", "133335.607500", "133337.115000", "133338.620000", "133340.125000", "133341.632500", "133343.137500", "133344.645000", "133346.150000", "133347.655000", "133349.162500", "133350.667500", "133352.175000", "133353.680000", "133355.187500", "133356.692500", "133358.197500", "133359.705000", "133401.210000", "133402.717500", "133404.222500", "133405.727500", "133407.235000", "133408.740000", "133410.247500", "133411.752500", "133413.257500", "133414.765000", "133416.270000", "133417.777500", "133419.282500", "133420.787500", "133422.295000", "133423.800000", "133425.307500", "133426.812500", "133428.320000", "133429.825000", "133431.330000", "133432.837500", "133434.342500", "133435.850000", "133437.355000", "133438.860000", "133440.367500", "133441.872500", "133443.380000", "133444.885000", "133446.390000", "133447.897500", "133449.402500"],
      "ContentTime": ["133050.765000", "133150.765000", "133150.765000", "133150.765000", "133150.765000", "133150.765000", "133150.765000", "133150.781000", "133150.781000", "133150.781000", "133150.781000", "133150.781000", "133150.796000", "133150.796000", "133150.796000", "133150.796000", "133150.796000", "133150.796000", "133150.796000", "133150.812000", "133150.812000", "133150.812000", "133150.812000", "133150.812000", "133150.828000", "133150.828000", "133150.828000", "133150.828000", "133250.765000", "133250.765000", "133250.765000", "133250.765000", "133250.765000", "133250.781000", "133250.781000", "133250.781000", "133250.781000", "133250.781000", "133250.781000", "133250.781000", "133250.796000", "133250.796000", "133250.796000", "133250.796000", "133250.796000", "133250.796000", "133250.796000", "133250.812000", "133250.812000", "133250.812000", "133250.812000", "133250.812000", "133250.812000", "133250.812000", "133350.765000", "133350.765000", "133350.765000", "133350.765000", "133350.765000", "133350.781000", "133350.781000", "133350.781000", "133350.781000", "133350.781000", "133350.781000", "133350.781000", "133350.781000", "133350.796000", "133350.796000", "133350.796000", "133350.796000", "133350.796000", "133350.796000", "133350.796000", "133350.796000", "133350.796000", "133350.812000", "133350.812000", "133350.812000", "133350.812000", "133450.765000", "133450.765000", "133450.765000", "133450.765000", "133450.765000", "133450.765000", "133450.765000", "133450.765000", "133450.781000", "133450.781000", "133450.781000", "133450.781000", "133450.781000", "133450.781000", "133450.796000", "133450.796000", "133450.796000", "133450.796000", "133450.796000", "133450.812000", "133450.812000", "133450.812000", "133450.812000", "133450.812000", "133450.812000", "133450.812000", "133550.765000", "133550.765000", "133550.765000", "133550.765000", "133550.765000", "133550.765000", "133550.765000", "133550.765000", "133550.765000", "133550.781000", "133550.781000", "133550.781000", "133550.781000", "133550.781000", "133550.796000", "133550.796000", "133550.796000", "133550.796000", "133550.796000", "133550.796000", "133550.796000", "133550.796000", "133550.796000", "133550.812000", "133550.812000", "133550.812000", "133650.765000", "133650.765000", "133650.765000", "133650.765000", "133650.765000", "133650.765000", "133650.765000", "133650.781000", "133650.781000", "133650.781000", "133650.781000", "133650.781000", "133650.796000", "133650.796000", "133650.796000", "133650.796000", "133650.796000", "133650.796000", "133650.812000", "133650.812000", "133650.812000", "133650.812000", "133650.812000", "133650.812000", "133650.812000", "133650.812000", "133750.765000", "133750.765000", "133750.765000", "133750.765000", "133750.765000", "133750.765000", "133750.765000", "133750.781000", "133750.781000", "133750.781000", "133750.781000", "133750.781000", "133750.781000", "133750.781000", "133750.781000", "133750.781000", "133750.796000", "133750.796000", "133750.796000", "133750.796000", "133750.796000", "133750.796000", "133750.812000", "133750.812000", "133750.812000", "133750.812000", "133810.765000", "133810.765000", "133810.765000", "133810.765000", "133810.765000", "133810.765000", "133810.765000", "133810.765000", "133910.765000", "133910.765000", "133910.765000", "133910.765000", "133910.765000", "133910.765000", "133910.765000", "133910.765000", "133910.765000", "133910.781000", "133910.781000", "133910.781000", "133910.781000", "133910.796000", "133910.796000", "133910.796000", "133910.796000", "133910.796000", "133910.796000", "133910.796000", "133910.796000", "133910.812000", "133910.812000", "133910.812000", "133910.812000", "133910.812000", "134010.765000", "134010.765000", "134010.765000", "134010.765000", "134010.765000", "134010.765000", "134010.781000", "134010.781000", "134010.781000", "134010.781000", "134010.781000", "134010.781000", "134010.796000", "134010.796000", "134010.796000", "134010.796000", "134010.796000", "134010.796000", "134010.796000", "134010.796000", "134010.796000", "134010.812000", "134010.812000", "134010.812000", "134010.812000", "134010.812000", "134110.765000", "134110.765000", "134110.765000", "134110.765000", "134110.765000", "134110.765000", "134110.781000", "134110.781000", "134110.781000", "134110.781000", "134110.781000", "134110.781000", "134110.796000", "134110.796000", "134110.796000", "134110.796000", "134110.796000", "134110.796000", "134110.796000", "134110.796000", "134110.812000", "134110.812000", "134110.812000", "134110.812000", "134110.812000", "134110.812000", "134125.359000", "134125.359000", "134125.359000", "134125.359000", "134125.375000", "134125.375000", "134125.375000"],
      "DataSetTrailingPadding": [
        "\u0000\u0000\u0000\u0000\u0000\u0000\u0000\u0000\u0000\u0000",
        "\u0000\u0000\u0000\u0000\u0000\u0000\u0000\u0000\u0000\u0000",
        "\u0000\u0000\u0000\u0000\u0000\u0000\u0000\u0000\u0000\u0000\u0000\u0000",
        "\u0000\u0000\u0000\u0000\u0000\u0000\u0000\u0000\u0000\u0000\u0000\u0000",
        "\u0000\u0000\u0000\u0000\u0000\u0000\u0000\u0000\u0000\u0000\u0000\u0000",
        "\u0000\u0000\u0000\u0000\u0000\u0000\u0000\u0000\u0000\u0000",
        "\u0000\u0000\u0000\u0000\u0000\u0000\u0000\u0000\u0000\u0000",
        "\u0000\u0000\u0000\u0000\u0000\u0000\u0000\u0000\u0000\u0000\u0000\u0000",
        "\u0000\u0000\u0000\u0000\u0000\u0000\u0000\u0000\u0000\u0000\u0000\u0000",
        "\u0000\u0000\u0000\u0000\u0000\u0000\u0000\u0000\u0000\u0000",
        "\u0000\u0000\u0000\u0000\u0000\u0000\u0000\u0000\u0000\u0000",
        "\u0000\u0000\u0000\u0000\u0000\u0000\u0000\u0000\u0000\u0000",
        "\u0000\u0000\u0000\u0000\u0000\u0000\u0000\u0000\u0000\u0000\u0000\u0000",
        "\u0000\u0000\u0000\u0000\u0000\u0000\u0000\u0000\u0000\u0000\u0000\u0000\u0000\u0000",
        "\u0000\u0000\u0000\u0000\u0000\u0000\u0000\u0000\u0000\u0000",
        "\u0000\u0000\u0000\u0000\u0000\u0000\u0000\u0000\u0000\u0000",
        "\u0000\u0000\u0000\u0000\u0000\u0000\u0000\u0000\u0000\u0000",
        "\u0000\u0000\u0000\u0000\u0000\u0000\u0000\u0000\u0000\u0000\u0000\u0000",
        "\u0000\u0000\u0000\u0000\u0000\u0000\u0000\u0000\u0000\u0000\u0000\u0000",
        "\u0000\u0000\u0000\u0000\u0000\u0000\u0000\u0000\u0000\u0000",
        "\u0000\u0000\u0000\u0000\u0000\u0000\u0000\u0000\u0000\u0000",
        "\u0000\u0000\u0000\u0000\u0000\u0000\u0000\u0000\u0000\u0000",
        "\u0000\u0000\u0000\u0000\u0000\u0000\u0000\u0000\u0000\u0000\u0000\u0000\u0000\u0000",
        "\u0000\u0000\u0000\u0000\u0000\u0000\u0000\u0000\u0000\u0000\u0000\u0000",
        "\u0000\u0000\u0000\u0000\u0000\u0000\u0000\u0000\u0000\u0000",
        "\u0000\u0000\u0000\u0000\u0000\u0000\u0000\u0000\u0000\u0000",
        "\u0000\u0000\u0000\u0000\u0000\u0000\u0000\u0000\u0000\u0000",
        "\u0000\u0000\u0000\u0000\u0000\u0000\u0000\u0000\u0000\u0000\u0000\u0000",
        "\u0000\u0000\u0000\u0000\u0000\u0000\u0000\u0000\u0000\u0000\u0000\u0000",
        "\u0000\u0000\u0000\u0000\u0000\u0000\u0000\u0000\u0000\u0000",
        "\u0000\u0000\u0000\u0000\u0000\u0000\u0000\u0000\u0000\u0000",
        "\u0000\u0000\u0000\u0000\u0000\u0000\u0000\u0000\u0000\u0000\u0000\u0000",
        "\u0000\u0000\u0000\u0000\u0000\u0000\u0000\u0000\u0000\u0000\u0000\u0000",
        "\u0000\u0000\u0000\u0000\u0000\u0000\u0000\u0000\u0000\u0000\u0000\u0000",
        "\u0000\u0000\u0000\u0000\u0000\u0000\u0000\u0000\u0000\u0000",
        "\u0000\u0000\u0000\u0000\u0000\u0000\u0000\u0000\u0000\u0000",
        "\u0000\u0000\u0000\u0000\u0000\u0000\u0000\u0000\u0000\u0000\u0000\u0000",
        "\u0000\u0000\u0000\u0000\u0000\u0000\u0000\u0000\u0000\u0000\u0000\u0000",
        "\u0000\u0000\u0000\u0000\u0000\u0000\u0000\u0000\u0000\u0000\u0000\u0000",
        "\u0000\u0000\u0000\u0000\u0000\u0000\u0000\u0000\u0000\u0000",
        "\u0000\u0000\u0000\u0000\u0000\u0000\u0000\u0000\u0000\u0000",
        "\u0000\u0000\u0000\u0000\u0000\u0000\u0000\u0000\u0000\u0000\u0000\u0000",
        "\u0000\u0000\u0000\u0000\u0000\u0000\u0000\u0000\u0000\u0000\u0000\u0000",
        "\u0000\u0000\u0000\u0000\u0000\u0000\u0000\u0000\u0000\u0000\u0000\u0000",
        "\u0000\u0000\u0000\u0000\u0000\u0000\u0000\u0000\u0000\u0000",
        "\u0000\u0000\u0000\u0000\u0000\u0000\u0000\u0000\u0000\u0000",
        "\u0000\u0000\u0000\u0000\u0000\u0000\u0000\u0000\u0000\u0000\u0000\u0000",
        "\u0000\u0000\u0000\u0000\u0000\u0000\u0000\u0000\u0000\u0000\u0000\u0000",
        "\u0000\u0000\u0000\u0000\u0000\u0000\u0000\u0000\u0000\u0000\u0000\u0000",
        "\u0000\u0000\u0000\u0000\u0000\u0000\u0000\u0000\u0000\u0000",
        "\u0000\u0000\u0000\u0000\u0000\u0000\u0000\u0000\u0000\u0000",
        "\u0000\u0000\u0000\u0000\u0000\u0000\u0000\u0000\u0000\u0000\u0000\u0000",
        "\u0000\u0000\u0000\u0000\u0000\u0000\u0000\u0000\u0000\u0000\u0000\u0000\u0000\u0000",
        "\u0000\u0000\u0000\u0000\u0000\u0000\u0000\u0000\u0000\u0000",
        "\u0000\u0000\u0000\u0000\u0000\u0000\u0000\u0000\u0000\u0000",
        "\u0000\u0000\u0000\u0000\u0000\u0000\u0000\u0000\u0000\u0000",
        "\u0000\u0000\u0000\u0000\u0000\u0000",
        "\u0000\u0000\u0000\u0000\u0000\u0000\u0000\u0000",
        "\u0000\u0000\u0000\u0000\u0000\u0000",
        "\u0000\u0000\u0000\u0000\u0000\u0000",
        "\u0000\u0000\u0000\u0000\u0000\u0000",
        "\u0000\u0000\u0000\u0000\u0000\u0000",
        "\u0000\u0000\u0000\u0000\u0000\u0000\u0000\u0000",
        "\u0000\u0000\u0000\u0000\u0000\u0000",
        "\u0000\u0000\u0000\u0000\u0000\u0000",
        "\u0000\u0000\u0000\u0000\u0000\u0000",
        "\u0000\u0000\u0000\u0000\u0000\u0000",
        "\u0000\u0000\u0000\u0000\u0000\u0000\u0000\u0000",
        "\u0000\u0000\u0000\u0000\u0000\u0000",
        "\u0000\u0000\u0000\u0000\u0000\u0000",
        "\u0000\u0000\u0000\u0000\u0000\u0000",
        "\u0000\u0000\u0000\u0000\u0000\u0000\u0000\u0000\u0000\u0000",
        "\u0000\u0000\u0000\u0000\u0000\u0000\u0000\u0000\u0000\u0000",
        "\u0000\u0000\u0000\u0000\u0000\u0000",
        "\u0000\u0000\u0000\u0000\u0000\u0000\u0000\u0000",
        "\u0000\u0000\u0000\u0000\u0000\u0000\u0000\u0000",
        "\u0000\u0000\u0000\u0000\u0000\u0000",
        "\u0000\u0000\u0000\u0000\u0000\u0000\u0000\u0000",
        "\u0000\u0000\u0000\u0000\u0000\u0000",
        "\u0000\u0000\u0000\u0000\u0000\u0000",
        "\u0000\u0000\u0000\u0000\u0000\u0000\u0000\u0000",
        "\u0000\u0000\u0000\u0000\u0000\u0000",
        "\u0000\u0000\u0000\u0000\u0000\u0000\u0000\u0000",
        "\u0000\u0000\u0000\u0000\u0000\u0000",
        "\u0000\u0000\u0000\u0000\u0000\u0000",
        "\u0000\u0000\u0000\u0000\u0000\u0000\u0000\u0000",
        "\u0000\u0000\u0000\u0000\u0000\u0000",
        "\u0000\u0000\u0000\u0000\u0000\u0000\u0000\u0000",
        "\u0000\u0000\u0000\u0000\u0000\u0000",
        "\u0000\u0000\u0000\u0000\u0000\u0000",
        "\u0000\u0000\u0000\u0000\u0000\u0000\u0000\u0000",
        "\u0000\u0000\u0000\u0000\u0000\u0000",
        "\u0000\u0000\u0000\u0000\u0000\u0000",
        "\u0000\u0000\u0000\u0000\u0000\u0000",
        "\u0000\u0000\u0000\u0000\u0000\u0000",
        "\u0000\u0000\u0000\u0000\u0000\u0000\u0000\u0000",
        "\u0000\u0000\u0000\u0000\u0000\u0000\u0000\u0000",
        "\u0000\u0000\u0000\u0000\u0000\u0000",
        "\u0000\u0000\u0000\u0000\u0000\u0000",
        "\u0000\u0000",
        "\u0000\u0000\u0000\u0000",
        "\u0000\u0000",
        "\u0000\u0000",
        "\u0000\u0000",
        "\u0000\u0000",
        "\u0000\u0000\u0000\u0000",
        "\u0000\u0000",
        "\u0000\u0000",
        "\u0000\u0000",
        "\u0000\u0000",
        "\u0000\u0000\u0000\u0000",
        "\u0000\u0000",
        "\u0000\u0000\u0000\u0000\u0000\u0000",
        "\u0000\u0000",
        "\u0000\u0000",
        "\u0000\u0000\u0000\u0000",
        "\u0000\u0000",
        "\u0000\u0000",
        "\u0000\u0000",
        "\u0000\u0000",
        "\u0000\u0000\u0000\u0000",
        "\u0000\u0000\u0000\u0000\u0000\u0000",
        "\u0000\u0000",
        "\u0000\u0000",
        "\u0000\u0000",
        "\u0000\u0000\u0000\u0000",
        "\u0000\u0000",
        "\u0000\u0000",
        "\u0000\u0000",
        "\u0000\u0000",
        "\u0000\u0000\u0000\u0000",
        "\u0000\u0000",
        "\u0000\u0000",
        "\u0000\u0000",
        "\u0000\u0000",
        "\u0000\u0000\u0000\u0000\u0000\u0000",
        "\u0000\u0000",
        "\u0000\u0000",
        "\u0000\u0000",
        "\u0000\u0000",
        "\u0000\u0000\u0000\u0000",
        "\u0000\u0000",
        "\u0000\u0000",
        "\u0000\u0000",
        "\u0000\u0000",
        "\u0000\u0000\u0000\u0000",
        "\u0000\u0000",
        "\u0000\u0000",
        "\u0000\u0000",
        "\u0000\u0000",
        "\u0000\u0000\u0000\u0000",
        "\u0000\u0000",
        "\u0000\u0000",
        "\u0000\u0000",
        "\u0000\u0000",
        "\u0000\u0000\u0000\u0000\u0000\u0000",
        "\u0000\u0000",
        "\u0000\u0000\u0000\u0000",
        "\u0000\u0000\u0000\u0000",
        "\u0000\u0000",
        "\u0000\u0000\u0000\u0000",
        "\u0000\u0000",
        "\u0000\u0000",
        "\u0000\u0000\u0000\u0000",
        "\u0000\u0000",
        "\u0000\u0000\u0000\u0000",
        "\u0000\u0000",
        "\u0000\u0000",
        "\u0000\u0000\u0000\u0000",
        "\u0000\u0000",
        "\u0000\u0000\u0000\u0000",
        "\u0000\u0000",
        "\u0000\u0000",
        "\u0000\u0000\u0000\u0000",
        "\u0000\u0000",
        "\u0000\u0000",
        "\u0000\u0000",
        "\u0000\u0000",
        "\u0000\u0000\u0000\u0000",
        "\u0000\u0000\u0000\u0000",
        "\u0000\u0000",
        "\u0000\u0000",
        "\u0000\u0000",
        "\u0000\u0000\u0000\u0000",
        "\u0000\u0000",
        "\u0000\u0000",
        "\u0000\u0000\u0000\u0000\u0000\u0000",
        "\u0000\u0000",
        "\u0000\u0000\u0000\u0000",
        "\u0000\u0000",
        "\u0000\u0000",
        "\u0000\u0000",
        "\u0000\u0000",
        "\u0000\u0000\u0000\u0000",
        "\u0000\u0000",
        "\u0000\u0000",
        "\u0000\u0000",
        "\u0000\u0000",
        "\u0000\u0000\u0000\u0000",
        "\u0000\u0000",
        "\u0000\u0000",
        "\u0000\u0000",
        "\u0000\u0000",
        "\u0000\u0000\u0000\u0000",
        "\u0000\u0000",
        "\u0000\u0000",
        "\u0000\u0000",
        "\u0000\u0000",
        "\u0000\u0000\u0000\u0000",
        "\u0000\u0000",
        "\u0000\u0000",
        "\u0000\u0000",
        "\u0000\u0000",
        "\u0000\u0000\u0000\u0000",
        "\u0000\u0000",
        "\u0000\u0000",
        "\u0000\u0000",
        "\u0000\u0000",
        "\u0000\u0000\u0000\u0000\u0000\u0000",
        "\u0000\u0000",
        "\u0000\u0000",
        "\u0000\u0000",
        "\u0000\u0000",
        "\u0000\u0000\u0000\u0000",
        "\u0000\u0000",
        "\u0000\u0000",
        "\u0000\u0000",
        "\u0000\u0000",
        "\u0000\u0000\u0000\u0000",
        "\u0000\u0000",
        "\u0000\u0000",
        "\u0000\u0000",
        "\u0000\u0000",
        "\u0000\u0000\u0000\u0000",
        "\u0000\u0000",
        "\u0000\u0000",
        "\u0000\u0000",
        "\u0000\u0000",
        "\u0000\u0000\u0000\u0000\u0000\u0000",
        "\u0000\u0000",
        "\u0000\u0000\u0000\u0000",
        "\u0000\u0000\u0000\u0000",
        "\u0000\u0000",
        "\u0000\u0000\u0000\u0000",
        "\u0000\u0000",
        "\u0000\u0000",
        "\u0000\u0000\u0000\u0000",
        "\u0000\u0000",
        "\u0000\u0000\u0000\u0000",
        "\u0000\u0000",
        "\u0000\u0000",
        "\u0000\u0000\u0000\u0000",
        "\u0000\u0000",
        "\u0000\u0000\u0000\u0000\u0000\u0000\u0000\u0000",
        "\u0000\u0000",
        "\u0000\u0000",
        "\u0000\u0000\u0000\u0000",
        "\u0000\u0000",
        "\u0000\u0000",
        "\u0000\u0000",
        "\u0000\u0000",
        "\u0000\u0000\u0000\u0000",
        "\u0000\u0000\u0000\u0000",
        "\u0000\u0000",
        "\u0000\u0000",
        "\u0000\u0000",
        "\u0000\u0000\u0000\u0000",
        "\u0000\u0000",
        "\u0000\u0000",
        "\u0000\u0000",
        "\u0000\u0000",
        "\u0000\u0000\u0000\u0000",
        "\u0000\u0000",
        "\u0000\u0000",
        "\u0000\u0000",
        "\u0000\u0000",
        "\u0000\u0000\u0000\u0000"
],
