{
  "AcquisitionMatrixPE": 110,
  "AcquisitionNumber": 1,
  "AcquisitionTime": "09:37:11.167500",
  "BandwidthPerPixelPhaseEncode": 26.35,
  "BaseResolution": 110,
  "CoilString": "C:HEA;HEP",
  "ConversionSoftware": "dcm2niix",
  "ConversionSoftwareVersion": "v1.0.20190410  GCC6.3.0",
  "DerivedVendorReportedEchoSpacing": 0.000690012,
  "DeviceSerialNumber": "35422",
  "DwellTime": 2.6e-06,
  "EchoTime": 0.03,
  "EffectiveEchoSpacing": 0.000345006,
  "FlipAngle": 85,
  "ImageComments": "Unaliased_MB4_PE4_LB",
  "ImageOrientationPatientDICOM": [0.999782, -0.00232655, 0.0207449, 2.73834e-10, 0.99377, 0.111452],
  "ImageType": [
    "ORIGINAL",
    "PRIMARY",
    "FMRI",
    "NONE",
    "MB",
    "ND",
    "MOSAIC"
],
  "ImagingFrequency": 123.178,
  "InPlanePhaseEncodingDirectionDICOM": "ROW",
  "InstitutionAddress": "kwanakro_599_C6F879_Seoul_KR_ZIP",
  "InstitutionName": "SNUBIC",
  "InstitutionalDepartmentName": "Department",
  "MRAcquisitionType": "2D",
  "MagneticFieldStrength": 3,
  "Manufacturer": "Siemens",
  "ManufacturersModelName": "TrioTim",
  "Modality": "MR",
  "MultibandAccelerationFactor": 4,
  "ParallelReductionFactorInPlane": 2,
  "PartialFourier": 1,
  "PatientPosition": "HFS",
  "PercentPhaseFOV": 100,
  "PhaseEncodingDirection": "i-",
  "PhaseEncodingSteps": 110,
  "PhaseResolution": 1,
  "PixelBandwidth": 1748,
  "ProcedureStepDescription": "SNU_SAVED",
  "ProtocolName": "WMGNG2_MB4_LR_SBRef",
  "PulseSequenceDetails": "%CustomerSeq%_cmrr_mbep2d_bold",
  "ReceiveCoilName": "32Ch_Head",
  "ReconMatrixPE": 110,
  "RefLinesPE": 32,
  "RepetitionTime": 1.5,
  "SAR": 0.122379,
  "ScanOptions": "FS",
  "ScanningSequence": "EP",
  "SequenceName": "epfid2d1_110",
  "SequenceVariant": "SK_SS",
  "SeriesDescription": "WMGNG2_MB4_LR_SBRef",
  "SeriesNumber": 10,
  "ShimSetting": [-4198, -29681, -2328, 600, -79, 586, -989, -204],
  "SliceThickness": 2.3,
  "SliceTiming": [0, 0.66, 1.3175, 0.47, 1.13, 0.2825, 0.94, 0.095, 0.7525, 1.4125, 0.565, 1.2225, 0.3775, 1.035, 0.1875, 0.8475, 0, 0.66, 1.3175, 0.47, 1.13, 0.2825, 0.94, 0.095, 0.7525, 1.4125, 0.565, 1.2225, 0.3775, 1.035, 0.1875, 0.8475, 0, 0.66, 1.3175, 0.47, 1.13, 0.2825, 0.94, 0.095, 0.7525, 1.4125, 0.565, 1.2225, 0.3775, 1.035, 0.1875, 0.8475, 0, 0.66, 1.3175, 0.47, 1.13, 0.2825, 0.94, 0.095, 0.7525, 1.4125, 0.565, 1.2225, 0.3775, 1.035, 0.1875, 0.8475],
  "SoftwareVersions": "syngo_MR_B17",
  "SpacingBetweenSlices": 2.3,
  "StationName": "MRC35422",
  "TaskName": "wmgng",
  "TotalReadoutTime": 0.0376057,
  "TxRefAmp": 318.687,
  "dcmmeta_affine": [
    [-2.326765537261963, 6.372852245917215e-10, 0.04801241308450699, 128.58717346191406],
    [0.0054145073518157005, 2.3127734661102295, 0.25628262758255005, -121.03733825683594],
    [0.0482790544629097, -0.259378045797348, 2.285172700881958, -44.55572509765625],
    [0.0, 0.0, 0.0, 1.0]
],
  "dcmmeta_reorient_transform": [
    [0.0, -1.0, 0.0, 109.0],
    [1.0, 0.0, 0.0, 0.0],
    [0.0, 0.0, 1.0, 0.0],
    [0.0, 0.0, 0.0, 1.0]
],
  "dcmmeta_shape": [110, 110, 64, 357],
  "dcmmeta_slice_dim": 2,
  "dcmmeta_version": 0.6,
  "global": {
    "const": {
      "AcquisitionMatrix": [0, 110, 110, 0],
      "AngioFlag": "N",
      "BitsAllocated": 16,
      "BitsStored": 12,
      "Columns": 880,
      "EchoNumbers": 1,
      "EchoTime": 30.0,
      "EchoTrainLength": 1,
      "FlipAngle": 85.0,
      "HighBit": 11,
      "ImageOrientationPatient": [0.99978209425389, -0.0023265461405, 0.02074490762459, 2.738335e-10, 0.99376987370141, 0.11145150570312],
      "ImagePositionPatient": [-1024.3918962246, -1019.3881628216, -191.27591464813],
      "ImageType": [
        "ORIGINAL",
        "PRIMARY",
        "FMRI",
        "NONE",
        "MB",
        "ND",
        "MOSAIC"
],
      "ImagedNucleus": "1H",
      "ImagingFrequency": 123.177942,
      "InPlanePhaseEncodingDirection": "ROW",
      "MRAcquisitionType": "2D",
      "MagneticFieldStrength": 3.0,
      "Manufacturer": "SIEMENS",
      "ManufacturerModelName": "TrioTim",
      "Modality": "MR",
      "NumberOfAverages": 1.0,
      "NumberOfPhaseEncodingSteps": 110,
      "PercentPhaseFieldOfView": 100.0,
      "PercentSampling": 100.0,
      "PerformedProcedureStepStartTime": "085750.687000",
      "PhotometricInterpretation": "MONOCHROME2",
      "PixelBandwidth": 1748.0,
      "PixelRepresentation": 0,
      "PixelSpacing": [2.3272726535797, 2.3272726535797],
      "ProtocolName": "WMGNG2_MB4_LR_SBRef",
      "ReferencedPerformedProcedureStepSequence": [
        {
          "ReferencedSOPClassUID": "1.2.840.10008.3.1.2.3.3",
          "ReferencedSOPInstanceUID": "1.3.12.2.1107.5.2.32.35422.30000020061523575071800000000"}
],
      "RepetitionTime": 1500.0,
      "Rows": 880,
      "SAR": 0.12237872458659,
      "SamplesPerPixel": 1,
      "ScanOptions": "FS",
      "ScanningSequence": "EP",
      "SequenceName": "epfid2d1_110",
      "SequenceVariant": [
        "SK",
        "SS"
],
      "SeriesDescription": "WMGNG2_MB4_LR_SBRef",
      "SeriesNumber": 10,
      "SeriesTime": "094231.187000",
      "SliceLocation": -55.071091049751,
      "SliceThickness": 2.2999999523163,
      "SmallestImagePixelValue": 0,
      "SoftwareVersions": "syngo MR B17",
      "SpacingBetweenSlices": 2.3000000711086,
      "SpecificCharacterSet": "ISO_IR 100",
      "StudyID": "1",
      "StudyTime": "085750.562000",
      "TransmitCoilName": "Body",
      "VariableFlipAngleFlag": "N",
      "WindowCenterWidthExplanation": "Algo1",
      "dBdt": 0.0},
    "slices": {}
  },
  "time": {
    "samples": {
      "AcquisitionNumber": [1, 2, 3, 4, 5, 6, 7, 8, 9, 10, 11, 12, 13, 14, 15, 16, 17, 18, 19, 20, 21, 22, 23, 24, 25, 26, 27, 28, 29, 30, 31, 32, 33, 34, 35, 36, 37, 38, 39, 40, 41, 42, 43, 44, 45, 46, 47, 48, 49, 50, 51, 52, 53, 54, 55, 56, 57, 58, 59, 60, 61, 62, 63, 64, 65, 66, 67, 68, 69, 70, 71, 72, 73, 74, 75, 76, 77, 78, 79, 80, 81, 82, 83, 84, 85, 86, 87, 88, 89, 90, 91, 92, 93, 94, 95, 96, 97, 98, 99, 100, 101, 102, 103, 104, 105, 106, 107, 108, 109, 110, 111, 112, 113, 114, 115, 116, 117, 118, 119, 120, 121, 122, 123, 124, 125, 126, 127, 128, 129, 130, 131, 132, 133, 134, 135, 136, 137, 138, 139, 140, 141, 142, 143, 144, 145, 146, 147, 148, 149, 150, 151, 152, 153, 154, 155, 156, 157, 158, 159, 160, 161, 162, 163, 164, 165, 166, 167, 168, 169, 170, 171, 172, 173, 174, 175, 176, 177, 178, 179, 180, 181, 182, 183, 184, 185, 186, 187, 188, 189, 190, 191, 192, 193, 194, 195, 196, 197, 198, 199, 200, 201, 202, 203, 204, 205, 206, 207, 208, 209, 210, 211, 212, 213, 214, 215, 216, 217, 218, 219, 220, 221, 222, 223, 224, 225, 226, 227, 228, 229, 230, 231, 232, 233, 234, 235, 236, 237, 238, 239, 240, 241, 242, 243, 244, 245, 246, 247, 248, 249, 250, 251, 252, 253, 254, 255, 256, 257, 258, 259, 260, 261, 262, 263, 264, 265, 266, 267, 268, 269, 270, 271, 272, 273, 274, 275, 276, 277, 278, 279, 280, 281, 282, 283, 284, 285, 286, 287, 288, 289, 290, 291, 292, 293, 294, 295, 296, 297, 298, 299, 300, 301, 302, 303, 304, 305, 306, 307, 308, 309, 310, 311, 312, 313, 314, 315, 316, 317, 318, 319, 320, 321, 322, 323, 324, 325, 326, 327, 328, 329, 330, 331, 332, 333, 334, 335, 336, 337, 338, 339, 340, 341, 342, 343, 344, 345, 346, 347, 348, 349, 350, 351, 352, 353, 354, 355, 356, 357],
      "AcquisitionTime": ["093711.167500", "093712.675000", "093714.180000", "093715.685000", "093717.192500", "093718.697500", "093720.205000", "093721.710000", "093723.215000", "093724.722500", "093726.227500", "093727.735000", "093729.240000", "093730.745000", "093732.252500", "093733.757500", "093735.265000", "093736.770000", "093738.275000", "093739.782500", "093741.287500", "093742.795000", "093744.300000", "093745.807500", "093747.312500", "093748.817500", "093750.325000", "093751.830000", "093753.337500", "093754.842500", "093756.347500", "093757.855000", "093759.360000", "093800.867500", "093802.372500", "093803.877500", "093805.385000", "093806.890000", "093808.397500", "093809.902500", "093811.407500", "093812.915000", "093814.420000", "093815.927500", "093817.432500", "093818.940000", "093820.445000", "093821.950000", "093823.457500", "093824.962500", "093826.470000", "093827.975000", "093829.480000", "093830.987500", "093832.492500", "093834.000000", "093835.505000", "093837.010000", "093838.517500", "093840.022500", "093841.530000", "093843.035000", "093844.540000", "093846.047500", "093847.552500", "093849.060000", "093850.565000", "093852.072500", "093853.577500", "093855.082500", "093856.590000", "093858.095000", "093859.602500", "093901.107500", "093902.612500", "093904.120000", "093905.625000", "093907.132500", "093908.637500", "093910.142500", "093911.650000", "093913.155000", "093914.662500", "093916.167500", "093917.675000", "093919.180000", "093920.685000", "093922.192500", "093923.697500", "093925.205000", "093926.710000", "093928.215000", "093929.722500", "093931.227500", "093932.735000", "093934.240000", "093935.745000", "093937.252500", "093938.757500", "093940.265000", "093941.770000", "093943.275000", "093944.782500", "093946.287500", "093947.795000", "093949.300000", "093950.807500", "093952.312500", "093953.817500", "093955.325000", "093956.830000", "093958.337500", "093959.842500", "094001.347500", "094002.855000", "094004.360000", "094005.867500", "094007.372500", "094008.877500", "094010.385000", "094011.890000", "094013.397500", "094014.902500", "094016.407500", "094017.915000", "094019.420000", "094020.927500", "094022.432500", "094023.940000", "094025.445000", "094026.950000", "094028.457500", "094029.962500", "094031.470000", "094032.975000", "094034.480000", "094035.987500", "094037.492500", "094039.000000", "094040.505000", "094042.010000", "094043.517500", "094045.022500", "094046.530000", "094048.035000", "094049.540000", "094051.047500", "094052.552500", "094054.060000", "094055.565000", "094057.072500", "094058.577500", "094100.082500", "094101.590000", "094103.095000", "094104.602500", "094106.107500", "094107.612500", "094109.120000", "094110.625000", "094112.132500", "094113.637500", "094115.142500", "094116.650000", "094118.155000", "094119.662500", "094121.167500", "094122.675000", "094124.180000", "094125.685000", "094127.192500", "094128.697500", "094130.205000", "094131.710000", "094133.215000", "094134.722500", "094136.227500", "094137.735000", "094139.240000", "094140.745000", "094142.252500", "094143.757500", "094145.265000", "094146.770000", "094148.275000", "094149.782500", "094151.287500", "094152.795000", "094154.300000", "094155.807500", "094157.312500", "094158.817500", "094200.325000", "094201.830000", "094203.337500", "094204.842500", "094206.347500", "094207.855000", "094209.360000", "094210.867500", "094212.372500", "094213.877500", "094215.385000", "094216.890000", "094218.397500", "094219.902500", "094221.407500", "094222.915000", "094224.420000", "094225.927500", "094227.432500", "094228.940000", "094230.445000", "094231.950000", "094233.457500", "094234.962500", "094236.470000", "094237.975000", "094239.480000", "094240.987500", "094242.492500", "094244.000000", "094245.505000", "094247.010000", "094248.517500", "094250.022500", "094251.530000", "094253.035000", "094254.540000", "094256.047500", "094257.552500", "094259.060000", "094300.565000", "094302.072500", "094303.577500", "094305.082500", "094306.590000", "094308.095000", "094309.602500", "094311.107500", "094312.612500", "094314.120000", "094315.625000", "094317.132500", "094318.637500", "094320.142500", "094321.650000", "094323.155000", "094324.662500", "094326.167500", "094327.675000", "094329.180000", "094330.685000", "094332.192500", "094333.697500", "094335.205000", "094336.710000", "094338.215000", "094339.722500", "094341.227500", "094342.735000", "094344.240000", "094345.745000", "094347.252500", "094348.757500", "094350.265000", "094351.770000", "094353.275000", "094354.782500", "094356.287500", "094357.795000", "094359.300000", "094400.807500", "094402.312500", "094403.817500", "094405.325000", "094406.830000", "094408.337500", "094409.842500", "094411.347500", "094412.855000", "094414.360000", "094415.867500", "094417.372500", "094418.877500", "094420.385000", "094421.890000", "094423.397500", "094424.902500", "094426.407500", "094427.915000", "094429.420000", "094430.927500", "094432.432500", "094433.940000", "094435.445000", "094436.950000", "094438.457500", "094439.962500", "094441.470000", "094442.975000", "094444.480000", "094445.987500", "094447.492500", "094449.000000", "094450.505000", "094452.010000", "094453.517500", "094455.022500", "094456.530000", "094458.035000", "094459.540000", "094501.047500", "094502.552500", "094504.060000", "094505.565000", "094507.072500", "094508.577500", "094510.082500", "094511.590000", "094513.095000", "094514.602500", "094516.107500", "094517.612500", "094519.120000", "094520.625000", "094522.132500", "094523.637500", "094525.142500", "094526.650000", "094528.155000", "094529.662500", "094531.167500", "094532.675000", "094534.180000", "094535.685000", "094537.192500", "094538.697500", "094540.205000", "094541.710000", "094543.215000", "094544.722500", "094546.227500", "094547.735000", "094549.240000", "094550.745000", "094552.252500", "094553.757500", "094555.265000", "094556.770000", "094558.275000", "094559.782500", "094601.287500", "094602.795000", "094604.300000", "094605.807500", "094607.312500"],
      "ContentTime": ["094231.187000", "094231.187000", "094231.187000", "094231.187000", "094231.187000", "094231.203000", "094231.203000", "094231.203000", "094331.171000", "094331.171000", "094331.171000", "094331.171000", "094331.171000", "094331.171000", "094331.171000", "094331.171000", "094331.187000", "094331.187000", "094331.187000", "094331.187000", "094331.187000", "094331.203000", "094331.203000", "094331.203000", "094331.203000", "094331.203000", "094331.203000", "094331.218000", "094331.218000", "094331.218000", "094331.218000", "094331.218000", "094331.218000", "094331.218000", "094431.171000", "094431.171000", "094431.171000", "094431.187000", "094431.187000", "094431.187000", "094431.187000", "094431.187000", "094431.187000", "094431.187000", "094431.203000", "094431.203000", "094431.203000", "094431.203000", "094431.203000", "094431.203000", "094431.203000", "094431.203000", "094431.203000", "094431.218000", "094431.218000", "094431.218000", "094431.218000", "094431.218000", "094431.218000", "094431.234000", "094531.171000", "094531.171000", "094531.171000", "094531.171000", "094531.171000", "094531.171000", "094531.171000", "094531.171000", "094531.187000", "094531.187000", "094531.187000", "094531.187000", "094531.187000", "094531.187000", "094531.187000", "094531.187000", "094531.187000", "094531.203000", "094531.203000", "094531.203000", "094531.203000", "094531.203000", "094531.203000", "094531.218000", "094531.218000", "094531.218000", "094631.171000", "094631.171000", "094631.171000", "094631.171000", "094631.171000", "094631.171000", "094631.171000", "094631.187000", "094631.187000", "094631.187000", "094631.187000", "094631.203000", "094631.203000", "094631.203000", "094631.203000", "094631.203000", "094631.203000", "094631.203000", "094631.203000", "094631.203000", "094631.203000", "094631.218000", "094631.218000", "094631.218000", "094631.218000", "094631.218000", "094731.171000", "094731.171000", "094731.171000", "094731.171000", "094731.171000", "094731.171000", "094731.171000", "094731.187000", "094731.187000", "094731.187000", "094731.187000", "094731.203000", "094731.203000", "094731.203000", "094731.203000", "094731.203000", "094731.218000", "094731.218000", "094731.218000", "094731.218000", "094731.234000", "094731.234000", "094731.234000", "094731.234000", "094731.234000", "094731.250000", "094831.171000", "094831.171000", "094831.171000", "094831.171000", "094831.171000", "094831.171000", "094831.171000", "094831.187000", "094831.187000", "094831.187000", "094831.187000", "094831.203000", "094831.203000", "094831.203000", "094831.203000", "094831.203000", "094831.203000", "094831.218000", "094831.218000", "094831.218000", "094831.218000", "094831.218000", "094831.218000", "094831.218000", "094831.218000", "094831.218000", "094931.171000", "094931.171000", "094931.171000", "094931.171000", "094931.171000", "094931.187000", "094931.187000", "094931.187000", "094931.203000", "094931.203000", "094931.203000", "094931.203000", "094931.203000", "094931.203000", "094931.218000", "094931.218000", "094931.218000", "094931.218000", "094931.218000", "094931.218000", "094931.218000", "094931.218000", "094931.218000", "094931.234000", "094931.234000", "094931.234000", "095031.171000", "095031.171000", "095031.171000", "095031.171000", "095031.171000", "095031.171000", "095031.171000", "095031.187000", "095031.187000", "095031.187000", "095031.187000", "095031.187000", "095031.187000", "095031.203000", "095031.203000", "095031.203000", "095031.203000", "095031.203000", "095031.203000", "095031.203000", "095031.203000", "095031.218000", "095031.218000", "095031.218000", "095031.218000", "095031.218000", "095131.171000", "095131.171000", "095131.171000", "095131.171000", "095131.171000", "095131.171000", "095131.171000", "095131.187000", "095131.187000", "095131.187000", "095131.187000", "095131.187000", "095131.187000", "095131.203000", "095131.203000", "095131.203000", "095131.203000", "095131.203000", "095131.203000", "095131.218000", "095131.218000", "095131.218000", "095131.218000", "095131.218000", "095131.218000", "095131.218000", "095231.171000", "095231.171000", "095231.171000", "095231.171000", "095231.171000", "095231.171000", "095231.187000", "095231.187000", "095231.187000", "095231.187000", "095231.187000", "095231.187000", "095231.187000", "095231.203000", "095231.203000", "095231.203000", "095231.203000", "095231.203000", "095231.218000", "095231.218000", "095231.218000", "095231.218000", "095231.218000", "095231.218000", "095231.234000", "095231.234000", "095311.171000", "095311.171000", "095311.171000", "095311.171000", "095311.171000", "095311.171000", "095311.171000", "095311.187000", "095311.187000", "095311.187000", "095311.187000", "095311.187000", "095311.203000", "095311.203000", "095311.203000", "095311.203000", "095311.203000", "095311.203000", "095411.171000", "095411.171000", "095411.171000", "095411.171000", "095411.171000", "095411.171000", "095411.171000", "095411.187000", "095411.187000", "095411.187000", "095411.187000", "095411.187000", "095411.187000", "095411.187000", "095411.187000", "095411.203000", "095411.203000", "095411.203000", "095411.203000", "095411.203000", "095411.203000", "095411.203000", "095411.203000", "095411.218000", "095411.218000", "095411.218000", "095511.171000", "095511.171000", "095511.171000", "095511.171000", "095511.187000", "095511.187000", "095511.187000", "095511.187000", "095511.187000", "095511.187000", "095511.187000", "095511.203000", "095511.203000", "095511.203000", "095511.203000", "095511.203000", "095511.203000", "095511.203000", "095511.218000", "095511.218000", "095511.218000", "095511.218000", "095511.218000", "095511.218000", "095511.218000", "095511.218000", "095554.890000", "095554.890000", "095554.890000", "095554.906000", "095554.906000", "095554.906000", "095554.906000", "095554.906000", "095554.921000", "095554.921000", "095554.921000", "095554.921000", "095554.921000", "095554.921000", "095554.921000", "095554.921000", "095554.937000", "095554.937000", "095554.937000"],
      "DataSetTrailingPadding": [
        "\u0000\u0000\u0000\u0000\u0000\u0000\u0000\u0000\u0000\u0000\u0000\u0000\u0000\u0000\u0000\u0000\u0000\u0000\u0000\u0000\u0000\u0000\u0000\u0000\u0000\u0000\u0000\u0000\u0000\u0000\u0000\u0000\u0000\u0000",
        "\u0000\u0000\u0000\u0000\u0000\u0000\u0000\u0000\u0000\u0000\u0000\u0000\u0000\u0000\u0000\u0000\u0000\u0000\u0000\u0000\u0000\u0000\u0000\u0000\u0000\u0000\u0000\u0000\u0000\u0000\u0000\u0000\u0000\u0000\u0000\u0000",
        "\u0000\u0000\u0000\u0000\u0000\u0000\u0000\u0000\u0000\u0000\u0000\u0000\u0000\u0000\u0000\u0000\u0000\u0000\u0000\u0000\u0000\u0000\u0000\u0000\u0000\u0000\u0000\u0000\u0000\u0000\u0000\u0000\u0000\u0000\u0000\u0000",
        "\u0000\u0000\u0000\u0000\u0000\u0000\u0000\u0000\u0000\u0000\u0000\u0000\u0000\u0000\u0000\u0000\u0000\u0000\u0000\u0000\u0000\u0000\u0000\u0000\u0000\u0000\u0000\u0000\u0000\u0000\u0000\u0000\u0000\u0000\u0000\u0000",
        "\u0000\u0000\u0000\u0000\u0000\u0000\u0000\u0000\u0000\u0000\u0000\u0000\u0000\u0000\u0000\u0000\u0000\u0000\u0000\u0000\u0000\u0000\u0000\u0000\u0000\u0000\u0000\u0000\u0000\u0000\u0000\u0000\u0000\u0000\u0000\u0000",
        "\u0000\u0000\u0000\u0000\u0000\u0000\u0000\u0000\u0000\u0000\u0000\u0000\u0000\u0000\u0000\u0000\u0000\u0000\u0000\u0000\u0000\u0000\u0000\u0000\u0000\u0000\u0000\u0000\u0000\u0000\u0000\u0000\u0000\u0000",
        "\u0000\u0000\u0000\u0000\u0000\u0000\u0000\u0000\u0000\u0000\u0000\u0000\u0000\u0000\u0000\u0000\u0000\u0000\u0000\u0000\u0000\u0000\u0000\u0000\u0000\u0000\u0000\u0000\u0000\u0000\u0000\u0000\u0000\u0000",
        "\u0000\u0000\u0000\u0000\u0000\u0000\u0000\u0000\u0000\u0000\u0000\u0000\u0000\u0000\u0000\u0000\u0000\u0000\u0000\u0000\u0000\u0000\u0000\u0000\u0000\u0000\u0000\u0000\u0000\u0000\u0000\u0000\u0000\u0000\u0000\u0000",
        "\u0000\u0000\u0000\u0000\u0000\u0000\u0000\u0000\u0000\u0000\u0000\u0000\u0000\u0000\u0000\u0000\u0000\u0000\u0000\u0000\u0000\u0000\u0000\u0000\u0000\u0000\u0000\u0000\u0000\u0000\u0000\u0000\u0000\u0000\u0000\u0000",
        "\u0000\u0000\u0000\u0000\u0000\u0000\u0000\u0000\u0000\u0000\u0000\u0000\u0000\u0000\u0000\u0000\u0000\u0000\u0000\u0000\u0000\u0000\u0000\u0000\u0000\u0000\u0000\u0000\u0000\u0000\u0000\u0000",
        "\u0000\u0000\u0000\u0000\u0000\u0000\u0000\u0000\u0000\u0000\u0000\u0000\u0000\u0000\u0000\u0000\u0000\u0000\u0000\u0000\u0000\u0000\u0000\u0000\u0000\u0000\u0000\u0000\u0000\u0000",
        "\u0000\u0000\u0000\u0000\u0000\u0000\u0000\u0000\u0000\u0000\u0000\u0000\u0000\u0000\u0000\u0000\u0000\u0000\u0000\u0000\u0000\u0000\u0000\u0000\u0000\u0000\u0000\u0000\u0000\u0000",
        "\u0000\u0000\u0000\u0000\u0000\u0000\u0000\u0000\u0000\u0000\u0000\u0000\u0000\u0000\u0000\u0000\u0000\u0000\u0000\u0000\u0000\u0000\u0000\u0000\u0000\u0000\u0000\u0000\u0000\u0000\u0000\u0000",
        "\u0000\u0000\u0000\u0000\u0000\u0000\u0000\u0000\u0000\u0000\u0000\u0000\u0000\u0000\u0000\u0000\u0000\u0000\u0000\u0000\u0000\u0000\u0000\u0000\u0000\u0000\u0000\u0000\u0000\u0000\u0000\u0000",
        "\u0000\u0000\u0000\u0000\u0000\u0000\u0000\u0000\u0000\u0000\u0000\u0000\u0000\u0000\u0000\u0000\u0000\u0000\u0000\u0000\u0000\u0000\u0000\u0000\u0000\u0000\u0000\u0000\u0000\u0000\u0000\u0000",
        "\u0000\u0000\u0000\u0000\u0000\u0000\u0000\u0000\u0000\u0000\u0000\u0000\u0000\u0000\u0000\u0000\u0000\u0000\u0000\u0000\u0000\u0000\u0000\u0000\u0000\u0000\u0000\u0000\u0000\u0000",
        "\u0000\u0000\u0000\u0000\u0000\u0000\u0000\u0000\u0000\u0000\u0000\u0000\u0000\u0000\u0000\u0000\u0000\u0000\u0000\u0000\u0000\u0000\u0000\u0000\u0000\u0000\u0000\u0000\u0000\u0000",
        "\u0000\u0000\u0000\u0000\u0000\u0000\u0000\u0000\u0000\u0000\u0000\u0000\u0000\u0000\u0000\u0000\u0000\u0000\u0000\u0000\u0000\u0000\u0000\u0000\u0000\u0000\u0000\u0000\u0000\u0000\u0000\u0000",
        "\u0000\u0000\u0000\u0000\u0000\u0000\u0000\u0000\u0000\u0000\u0000\u0000\u0000\u0000\u0000\u0000\u0000\u0000\u0000\u0000\u0000\u0000\u0000\u0000\u0000\u0000\u0000\u0000\u0000\u0000\u0000\u0000",
        "\u0000\u0000\u0000\u0000\u0000\u0000\u0000\u0000\u0000\u0000\u0000\u0000\u0000\u0000\u0000\u0000\u0000\u0000\u0000\u0000\u0000\u0000\u0000\u0000\u0000\u0000\u0000\u0000\u0000\u0000\u0000\u0000",
        "\u0000\u0000\u0000\u0000\u0000\u0000\u0000\u0000\u0000\u0000\u0000\u0000\u0000\u0000\u0000\u0000\u0000\u0000\u0000\u0000\u0000\u0000\u0000\u0000\u0000\u0000\u0000\u0000\u0000\u0000",
        "\u0000\u0000\u0000\u0000\u0000\u0000\u0000\u0000\u0000\u0000\u0000\u0000\u0000\u0000\u0000\u0000\u0000\u0000\u0000\u0000\u0000\u0000\u0000\u0000\u0000\u0000\u0000\u0000\u0000\u0000",
        "\u0000\u0000\u0000\u0000\u0000\u0000\u0000\u0000\u0000\u0000\u0000\u0000\u0000\u0000\u0000\u0000\u0000\u0000\u0000\u0000\u0000\u0000\u0000\u0000\u0000\u0000\u0000\u0000\u0000\u0000\u0000\u0000\u0000\u0000",
        "\u0000\u0000\u0000\u0000\u0000\u0000\u0000\u0000\u0000\u0000\u0000\u0000\u0000\u0000\u0000\u0000\u0000\u0000\u0000\u0000\u0000\u0000\u0000\u0000\u0000\u0000\u0000\u0000\u0000\u0000\u0000\u0000\u0000\u0000",
        "\u0000\u0000\u0000\u0000\u0000\u0000\u0000\u0000\u0000\u0000\u0000\u0000\u0000\u0000\u0000\u0000\u0000\u0000\u0000\u0000\u0000\u0000\u0000\u0000\u0000\u0000\u0000\u0000\u0000\u0000",
        "\u0000\u0000\u0000\u0000\u0000\u0000\u0000\u0000\u0000\u0000\u0000\u0000\u0000\u0000\u0000\u0000\u0000\u0000\u0000\u0000\u0000\u0000\u0000\u0000\u0000\u0000\u0000\u0000\u0000\u0000",
        "\u0000\u0000\u0000\u0000\u0000\u0000\u0000\u0000\u0000\u0000\u0000\u0000\u0000\u0000\u0000\u0000\u0000\u0000\u0000\u0000\u0000\u0000\u0000\u0000\u0000\u0000\u0000\u0000\u0000\u0000",
        "\u0000\u0000\u0000\u0000\u0000\u0000\u0000\u0000\u0000\u0000\u0000\u0000\u0000\u0000\u0000\u0000\u0000\u0000\u0000\u0000\u0000\u0000\u0000\u0000\u0000\u0000\u0000\u0000\u0000\u0000\u0000\u0000",
        "\u0000\u0000\u0000\u0000\u0000\u0000\u0000\u0000\u0000\u0000\u0000\u0000\u0000\u0000\u0000\u0000\u0000\u0000\u0000\u0000\u0000\u0000\u0000\u0000\u0000\u0000\u0000\u0000\u0000\u0000\u0000\u0000",
        "\u0000\u0000\u0000\u0000\u0000\u0000\u0000\u0000\u0000\u0000\u0000\u0000\u0000\u0000\u0000\u0000\u0000\u0000\u0000\u0000\u0000\u0000\u0000\u0000\u0000\u0000\u0000\u0000\u0000\u0000",
        "\u0000\u0000\u0000\u0000\u0000\u0000\u0000\u0000\u0000\u0000\u0000\u0000\u0000\u0000\u0000\u0000\u0000\u0000\u0000\u0000\u0000\u0000\u0000\u0000\u0000\u0000\u0000\u0000\u0000\u0000",
        "\u0000\u0000\u0000\u0000\u0000\u0000\u0000\u0000\u0000\u0000\u0000\u0000\u0000\u0000\u0000\u0000\u0000\u0000\u0000\u0000\u0000\u0000\u0000\u0000\u0000\u0000\u0000\u0000\u0000\u0000",
        "\u0000\u0000\u0000\u0000\u0000\u0000\u0000\u0000\u0000\u0000\u0000\u0000\u0000\u0000\u0000\u0000\u0000\u0000\u0000\u0000\u0000\u0000\u0000\u0000\u0000\u0000\u0000\u0000\u0000\u0000\u0000\u0000",
        "\u0000\u0000\u0000\u0000\u0000\u0000\u0000\u0000\u0000\u0000\u0000\u0000\u0000\u0000\u0000\u0000\u0000\u0000\u0000\u0000\u0000\u0000\u0000\u0000\u0000\u0000\u0000\u0000\u0000\u0000\u0000\u0000",
        "\u0000\u0000\u0000\u0000\u0000\u0000\u0000\u0000\u0000\u0000\u0000\u0000\u0000\u0000\u0000\u0000\u0000\u0000\u0000\u0000\u0000\u0000\u0000\u0000\u0000\u0000\u0000\u0000\u0000\u0000",
        "\u0000\u0000\u0000\u0000\u0000\u0000\u0000\u0000\u0000\u0000\u0000\u0000\u0000\u0000\u0000\u0000\u0000\u0000\u0000\u0000\u0000\u0000\u0000\u0000\u0000\u0000\u0000\u0000\u0000\u0000",
        "\u0000\u0000\u0000\u0000\u0000\u0000\u0000\u0000\u0000\u0000\u0000\u0000\u0000\u0000\u0000\u0000\u0000\u0000\u0000\u0000\u0000\u0000\u0000\u0000\u0000\u0000\u0000\u0000\u0000\u0000",
        "\u0000\u0000\u0000\u0000\u0000\u0000\u0000\u0000\u0000\u0000\u0000\u0000\u0000\u0000\u0000\u0000\u0000\u0000\u0000\u0000\u0000\u0000\u0000\u0000\u0000\u0000\u0000\u0000\u0000\u0000\u0000\u0000",
        "\u0000\u0000\u0000\u0000\u0000\u0000\u0000\u0000\u0000\u0000\u0000\u0000\u0000\u0000\u0000\u0000\u0000\u0000\u0000\u0000\u0000\u0000\u0000\u0000\u0000\u0000\u0000\u0000\u0000\u0000\u0000\u0000",
        "\u0000\u0000\u0000\u0000\u0000\u0000\u0000\u0000\u0000\u0000\u0000\u0000\u0000\u0000\u0000\u0000\u0000\u0000\u0000\u0000\u0000\u0000\u0000\u0000\u0000\u0000\u0000\u0000\u0000\u0000",
        "\u0000\u0000\u0000\u0000\u0000\u0000\u0000\u0000\u0000\u0000\u0000\u0000\u0000\u0000\u0000\u0000\u0000\u0000\u0000\u0000\u0000\u0000\u0000\u0000\u0000\u0000\u0000\u0000\u0000\u0000",
        "\u0000\u0000\u0000\u0000\u0000\u0000\u0000\u0000\u0000\u0000\u0000\u0000\u0000\u0000\u0000\u0000\u0000\u0000\u0000\u0000\u0000\u0000\u0000\u0000\u0000\u0000\u0000\u0000\u0000\u0000\u0000\u0000",
        "\u0000\u0000\u0000\u0000\u0000\u0000\u0000\u0000\u0000\u0000\u0000\u0000\u0000\u0000\u0000\u0000\u0000\u0000\u0000\u0000\u0000\u0000\u0000\u0000\u0000\u0000\u0000\u0000\u0000\u0000\u0000\u0000",
        "\u0000\u0000\u0000\u0000\u0000\u0000\u0000\u0000\u0000\u0000\u0000\u0000\u0000\u0000\u0000\u0000\u0000\u0000\u0000\u0000\u0000\u0000\u0000\u0000\u0000\u0000\u0000\u0000\u0000\u0000\u0000\u0000",
        "\u0000\u0000\u0000\u0000\u0000\u0000\u0000\u0000\u0000\u0000\u0000\u0000\u0000\u0000\u0000\u0000\u0000\u0000\u0000\u0000\u0000\u0000\u0000\u0000\u0000\u0000\u0000\u0000\u0000\u0000",
        "\u0000\u0000\u0000\u0000\u0000\u0000\u0000\u0000\u0000\u0000\u0000\u0000\u0000\u0000\u0000\u0000\u0000\u0000\u0000\u0000\u0000\u0000\u0000\u0000\u0000\u0000\u0000\u0000\u0000\u0000\u0000\u0000",
        "\u0000\u0000\u0000\u0000\u0000\u0000\u0000\u0000\u0000\u0000\u0000\u0000\u0000\u0000\u0000\u0000\u0000\u0000\u0000\u0000\u0000\u0000\u0000\u0000\u0000\u0000\u0000\u0000\u0000\u0000\u0000\u0000",
        "\u0000\u0000\u0000\u0000\u0000\u0000\u0000\u0000\u0000\u0000\u0000\u0000\u0000\u0000\u0000\u0000\u0000\u0000\u0000\u0000\u0000\u0000\u0000\u0000\u0000\u0000\u0000\u0000\u0000\u0000\u0000\u0000",
        "\u0000\u0000\u0000\u0000\u0000\u0000\u0000\u0000\u0000\u0000\u0000\u0000\u0000\u0000\u0000\u0000\u0000\u0000\u0000\u0000\u0000\u0000\u0000\u0000\u0000\u0000\u0000\u0000\u0000\u0000\u0000\u0000",
        "\u0000\u0000\u0000\u0000\u0000\u0000\u0000\u0000\u0000\u0000\u0000\u0000\u0000\u0000\u0000\u0000\u0000\u0000\u0000\u0000\u0000\u0000\u0000\u0000\u0000\u0000\u0000\u0000\u0000\u0000",
        "\u0000\u0000\u0000\u0000\u0000\u0000\u0000\u0000\u0000\u0000\u0000\u0000\u0000\u0000\u0000\u0000\u0000\u0000\u0000\u0000\u0000\u0000\u0000\u0000\u0000\u0000\u0000\u0000\u0000\u0000",
