{
  "AcquisitionMatrixPE": 110,
  "AcquisitionNumber": 1,
  "AcquisitionTime": "09:43:37.752500",
  "BandwidthPerPixelPhaseEncode": 26.35,
  "BaseResolution": 110,
  "CoilString": "C:HEA;HEP",
  "ConversionSoftware": "dcm2niix",
  "ConversionSoftwareVersion": "v1.0.20190410  GCC6.3.0",
  "DerivedVendorReportedEchoSpacing": 0.000690012,
  "DeviceSerialNumber": "35422",
  "DwellTime": 2.6e-06,
  "EchoTime": 0.03,
  "EffectiveEchoSpacing": 0.000345006,
  "FlipAngle": 85,
  "ImageComments": "Unaliased_MB4_PE4_LB",
  "ImageOrientationPatientDICOM": [0.999997, -0.000470616, -0.00236455, 2.07393e-10, 0.980763, -0.195201],
  "ImageType": [
    "ORIGINAL",
    "PRIMARY",
    "FMRI",
    "NONE",
    "MB",
    "ND",
    "MOSAIC"
],
  "ImagingFrequency": 123.178,
  "InPlanePhaseEncodingDirectionDICOM": "ROW",
  "InstitutionAddress": "kwanakro_599_C4F276_Seoul_KR_ZIP",
  "InstitutionName": "SNUBIC",
  "InstitutionalDepartmentName": "Department",
  "MRAcquisitionType": "2D",
  "MagneticFieldStrength": 3,
  "Manufacturer": "Siemens",
  "ManufacturersModelName": "TrioTim",
  "Modality": "MR",
  "MultibandAccelerationFactor": 4,
  "ParallelReductionFactorInPlane": 2,
  "PartialFourier": 1,
  "PatientPosition": "HFS",
  "PercentPhaseFOV": 100,
  "PhaseEncodingDirection": "i-",
  "PhaseEncodingSteps": 110,
  "PhaseResolution": 1,
  "PixelBandwidth": 1748,
  "ProcedureStepDescription": "SNU_SAVED",
  "ProtocolName": "WMGNG2_MB4_LR_SBRef",
  "PulseSequenceDetails": "%CustomerSeq%_cmrr_mbep2d_bold",
  "ReceiveCoilName": "32Ch_Head",
  "ReconMatrixPE": 110,
  "RefLinesPE": 32,
  "RepetitionTime": 1.5,
  "SAR": 0.111898,
  "ScanOptions": "FS",
  "ScanningSequence": "EP",
  "SequenceName": "epfid2d1_110",
  "SequenceVariant": "SK_SS",
  "SeriesDescription": "WMGNG2_MB4_LR_SBRef",
  "SeriesNumber": 18,
  "ShimSetting": [-4178, -29717, -2208, 561, -173, 483, -281, -136],
  "SliceThickness": 2.3,
  "SliceTiming": [0, 0.6575, 1.3175, 0.47, 1.1275, 0.28, 0.94, 0.0925, 0.7525, 1.41, 0.5625, 1.2225, 0.375, 1.035, 0.1875, 0.845, 0, 0.6575, 1.3175, 0.47, 1.1275, 0.28, 0.94, 0.0925, 0.7525, 1.41, 0.5625, 1.2225, 0.375, 1.035, 0.1875, 0.845, 0, 0.6575, 1.3175, 0.47, 1.1275, 0.28, 0.94, 0.0925, 0.7525, 1.41, 0.5625, 1.2225, 0.375, 1.035, 0.1875, 0.845, 0, 0.6575, 1.3175, 0.47, 1.1275, 0.28, 0.94, 0.0925, 0.7525, 1.41, 0.5625, 1.2225, 0.375, 1.035, 0.1875, 0.845],
  "SoftwareVersions": "syngo_MR_B17",
  "SpacingBetweenSlices": 2.3,
  "StationName": "MRC35422",
  "TaskName": "wmgng",
  "TotalReadoutTime": 0.0376057,
  "TxRefAmp": 336.124,
  "dcmmeta_affine": [
    [-2.327265977859497, 4.826598010154726e-10, -0.005545142572373152, 129.27432250976562],
    [0.0010952510638162494, 2.282503604888916, -0.4489602744579315, -103.7334213256836],
    [-0.005502960179001093, 0.454285204410553, 2.255748987197876, -91.61622619628906],
    [0.0, 0.0, 0.0, 1.0]
],
  "dcmmeta_reorient_transform": [
    [0.0, -1.0, 0.0, 109.0],
    [1.0, 0.0, 0.0, 0.0],
    [0.0, 0.0, 1.0, 0.0],
    [0.0, 0.0, 0.0, 1.0]
],
  "dcmmeta_shape": [110, 110, 64, 357],
  "dcmmeta_slice_dim": 2,
  "dcmmeta_version": 0.6,
  "global": {
    "const": {
      "AcquisitionMatrix": [0, 110, 110, 0],
      "AngioFlag": "N",
      "BitsAllocated": 16,
      "BitsStored": 12,
      "Columns": 880,
      "EchoNumbers": 1,
      "EchoTime": 30.0,
      "EchoTrainLength": 1,
      "FlipAngle": 85.0,
      "HighBit": 11,
      "ImageOrientationPatient": [0.9999970937001, -0.0004706157068, -0.0023645532802, 2.073929e-10, 0.98076332168627, -0.1952006834899],
      "ImagePositionPatient": [-1025.2716899939, -1023.4017151283, 134.91930672761],
      "ImageType": [
        "ORIGINAL",
        "PRIMARY",
        "FMRI",
        "NONE",
        "MB",
        "ND",
        "MOSAIC"
],
      "ImagedNucleus": "1H",
      "ImagingFrequency": 123.177542,
      "InPlanePhaseEncodingDirection": "ROW",
      "MRAcquisitionType": "2D",
      "MagneticFieldStrength": 3.0,
      "Manufacturer": "SIEMENS",
      "ManufacturerModelName": "TrioTim",
      "Modality": "MR",
      "NumberOfAverages": 1.0,
      "NumberOfPhaseEncodingSteps": 110,
      "PercentPhaseFieldOfView": 100.0,
      "PercentSampling": 100.0,
      "PerformedProcedureStepStartTime": "085622.593000",
      "PhotometricInterpretation": "MONOCHROME2",
      "PixelBandwidth": 1748.0,
      "PixelRepresentation": 0,
      "PixelSpacing": [2.3272726535797, 2.3272726535797],
      "ProtocolName": "WMGNG2_MB4_LR_SBRef",
      "ReferencedPerformedProcedureStepSequence": [
        {
          "ReferencedSOPClassUID": "1.2.840.10008.3.1.2.3.3",
          "ReferencedSOPInstanceUID": "1.3.12.2.1107.5.2.32.35422.30000019122023562262500000000"}
],
      "RepetitionTime": 1500.0,
      "Rows": 880,
      "SAR": 0.1118975444166,
      "SamplesPerPixel": 1,
      "ScanOptions": "FS",
      "ScanningSequence": "EP",
      "SequenceName": "epfid2d1_110",
      "SequenceVariant": [
        "SK",
        "SS"
],
      "SeriesDescription": "WMGNG2_MB4_LR_SBRef",
      "SeriesNumber": 18,
      "SeriesTime": "095514.203000",
      "SliceLocation": -69.916470790507,
      "SliceThickness": 2.2999999523163,
      "SmallestImagePixelValue": 0,
      "SoftwareVersions": "syngo MR B17",
      "SpacingBetweenSlices": 2.2999999665496,
      "SpecificCharacterSet": "ISO_IR 100",
      "StudyID": "1",
      "StudyTime": "085622.437000",
      "TransmitCoilName": "Body",
      "VariableFlipAngleFlag": "N",
      "WindowCenterWidthExplanation": "Algo1",
      "dBdt": 0.0},
    "slices": {}
  },
  "time": {
    "samples": {
      "AcquisitionNumber": [1, 2, 3, 4, 5, 6, 7, 8, 9, 10, 11, 12, 13, 14, 15, 16, 17, 18, 19, 20, 21, 22, 23, 24, 25, 26, 27, 28, 29, 30, 31, 32, 33, 34, 35, 36, 37, 38, 39, 40, 41, 42, 43, 44, 45, 46, 47, 48, 49, 50, 51, 52, 53, 54, 55, 56, 57, 58, 59, 60, 61, 62, 63, 64, 65, 66, 67, 68, 69, 70, 71, 72, 73, 74, 75, 76, 77, 78, 79, 80, 81, 82, 83, 84, 85, 86, 87, 88, 89, 90, 91, 92, 93, 94, 95, 96, 97, 98, 99, 100, 101, 102, 103, 104, 105, 106, 107, 108, 109, 110, 111, 112, 113, 114, 115, 116, 117, 118, 119, 120, 121, 122, 123, 124, 125, 126, 127, 128, 129, 130, 131, 132, 133, 134, 135, 136, 137, 138, 139, 140, 141, 142, 143, 144, 145, 146, 147, 148, 149, 150, 151, 152, 153, 154, 155, 156, 157, 158, 159, 160, 161, 162, 163, 164, 165, 166, 167, 168, 169, 170, 171, 172, 173, 174, 175, 176, 177, 178, 179, 180, 181, 182, 183, 184, 185, 186, 187, 188, 189, 190, 191, 192, 193, 194, 195, 196, 197, 198, 199, 200, 201, 202, 203, 204, 205, 206, 207, 208, 209, 210, 211, 212, 213, 214, 215, 216, 217, 218, 219, 220, 221, 222, 223, 224, 225, 226, 227, 228, 229, 230, 231, 232, 233, 234, 235, 236, 237, 238, 239, 240, 241, 242, 243, 244, 245, 246, 247, 248, 249, 250, 251, 252, 253, 254, 255, 256, 257, 258, 259, 260, 261, 262, 263, 264, 265, 266, 267, 268, 269, 270, 271, 272, 273, 274, 275, 276, 277, 278, 279, 280, 281, 282, 283, 284, 285, 286, 287, 288, 289, 290, 291, 292, 293, 294, 295, 296, 297, 298, 299, 300, 301, 302, 303, 304, 305, 306, 307, 308, 309, 310, 311, 312, 313, 314, 315, 316, 317, 318, 319, 320, 321, 322, 323, 324, 325, 326, 327, 328, 329, 330, 331, 332, 333, 334, 335, 336, 337, 338, 339, 340, 341, 342, 343, 344, 345, 346, 347, 348, 349, 350, 351, 352, 353, 354, 355, 356, 357],
      "AcquisitionTime": ["094337.752500", "094339.257500", "094340.762500", "094342.270000", "094343.775000", "094345.282500", "094346.787500", "094348.292500", "094349.800000", "094351.305000", "094352.812500", "094354.317500", "094355.822500", "094357.330000", "094358.835000", "094400.342500", "094401.847500", "094403.355000", "094404.860000", "094406.365000", "094407.872500", "094409.377500", "094410.885000", "094412.390000", "094413.895000", "094415.402500", "094416.907500", "094418.415000", "094419.920000", "094421.425000", "094422.932500", "094424.437500", "094425.945000", "094427.450000", "094428.957500", "094430.462500", "094431.967500", "094433.475000", "094434.980000", "094436.487500", "094437.992500", "094439.497500", "094441.005000", "094442.510000", "094444.017500", "094445.522500", "094447.027500", "094448.535000", "094450.040000", "094451.547500", "094453.052500", "094454.557500", "094456.065000", "094457.570000", "094459.077500", "094500.582500", "094502.090000", "094503.595000", "094505.100000", "094506.607500", "094508.112500", "094509.620000", "094511.125000", "094512.630000", "094514.137500", "094515.642500", "094517.150000", "094518.655000", "094520.160000", "094521.667500", "094523.172500", "094524.680000", "094526.185000", "094527.690000", "094529.197500", "094530.702500", "094532.210000", "094533.715000", "094535.222500", "094536.727500", "094538.232500", "094539.740000", "094541.245000", "094542.752500", "094544.257500", "094545.762500", "094547.270000", "094548.775000", "094550.282500", "094551.787500", "094553.292500", "094554.800000", "094556.305000", "094557.812500", "094559.317500", "094600.822500", "094602.330000", "094603.835000", "094605.342500", "094606.847500", "094608.355000", "094609.860000", "094611.365000", "094612.872500", "094614.377500", "094615.885000", "094617.390000", "094618.895000", "094620.402500", "094621.907500", "094623.415000", "094624.920000", "094626.425000", "094627.932500", "094629.437500", "094630.945000", "094632.450000", "094633.957500", "094635.462500", "094636.967500", "094638.475000", "094639.980000", "094641.487500", "094642.992500", "094644.497500", "094646.005000", "094647.510000", "094649.017500", "094650.522500", "094652.027500", "094653.535000", "094655.040000", "094656.547500", "094658.052500", "094659.557500", "094701.065000", "094702.570000", "094704.077500", "094705.582500", "094707.090000", "094708.595000", "094710.100000", "094711.607500", "094713.112500", "094714.620000", "094716.125000", "094717.630000", "094719.137500", "094720.642500", "094722.150000", "094723.655000", "094725.160000", "094726.667500", "094728.172500", "094729.680000", "094731.185000", "094732.690000", "094734.197500", "094735.702500", "094737.210000", "094738.715000", "094740.222500", "094741.727500", "094743.232500", "094744.740000", "094746.245000", "094747.752500", "094749.257500", "094750.762500", "094752.270000", "094753.775000", "094755.282500", "094756.787500", "094758.292500", "094759.800000", "094801.305000", "094802.812500", "094804.317500", "094805.822500", "094807.330000", "094808.835000", "094810.342500", "094811.847500", "094813.355000", "094814.860000", "094816.365000", "094817.872500", "094819.377500", "094820.885000", "094822.390000", "094823.895000", "094825.402500", "094826.907500", "094828.415000", "094829.920000", "094831.425000", "094832.932500", "094834.437500", "094835.945000", "094837.450000", "094838.957500", "094840.462500", "094841.967500", "094843.475000", "094844.980000", "094846.487500", "094847.992500", "094849.497500", "094851.005000", "094852.510000", "094854.017500", "094855.522500", "094857.027500", "094858.535000", "094900.040000", "094901.547500", "094903.052500", "094904.557500", "094906.065000", "094907.570000", "094909.077500", "094910.582500", "094912.090000", "094913.595000", "094915.100000", "094916.607500", "094918.112500", "094919.620000", "094921.125000", "094922.630000", "094924.137500", "094925.642500", "094927.150000", "094928.655000", "094930.160000", "094931.667500", "094933.172500", "094934.680000", "094936.185000", "094937.690000", "094939.197500", "094940.702500", "094942.210000", "094943.715000", "094945.222500", "094946.727500", "094948.232500", "094949.740000", "094951.245000", "094952.752500", "094954.257500", "094955.762500", "094957.270000", "094958.775000", "095000.282500", "095001.787500", "095003.292500", "095004.800000", "095006.305000", "095007.812500", "095009.317500", "095010.822500", "095012.330000", "095013.835000", "095015.342500", "095016.847500", "095018.355000", "095019.860000", "095021.365000", "095022.872500", "095024.377500", "095025.885000", "095027.390000", "095028.895000", "095030.402500", "095031.907500", "095033.415000", "095034.920000", "095036.425000", "095037.932500", "095039.437500", "095040.945000", "095042.450000", "095043.957500", "095045.462500", "095046.967500", "095048.475000", "095049.980000", "095051.487500", "095052.992500", "095054.497500", "095056.005000", "095057.510000", "095059.017500", "095100.522500", "095102.027500", "095103.535000", "095105.040000", "095106.547500", "095108.052500", "095109.557500", "095111.065000", "095112.570000", "095114.077500", "095115.582500", "095117.090000", "095118.595000", "095120.100000", "095121.607500", "095123.112500", "095124.620000", "095126.125000", "095127.630000", "095129.137500", "095130.642500", "095132.150000", "095133.655000", "095135.160000", "095136.667500", "095138.172500", "095139.680000", "095141.185000", "095142.690000", "095144.197500", "095145.702500", "095147.210000", "095148.715000", "095150.222500", "095151.727500", "095153.232500", "095154.740000", "095156.245000", "095157.752500", "095159.257500", "095200.762500", "095202.270000", "095203.775000", "095205.282500", "095206.787500", "095208.292500", "095209.800000", "095211.305000", "095212.812500", "095214.317500", "095215.822500", "095217.330000", "095218.835000", "095220.342500", "095221.847500", "095223.355000", "095224.860000", "095226.365000", "095227.872500", "095229.377500", "095230.885000", "095232.390000", "095233.895000"],
      "ContentTime": ["095514.203000", "095514.203000", "095514.203000", "095514.203000", "095514.218000", "095514.218000", "095514.218000", "095514.218000", "095514.218000", "095614.203000", "095614.203000", "095614.203000", "095614.203000", "095614.203000", "095614.203000", "095614.218000", "095614.218000", "095614.218000", "095614.218000", "095614.218000", "095614.234000", "095614.234000", "095614.234000", "095614.234000", "095614.234000", "095614.234000", "095614.250000", "095614.250000", "095614.250000", "095614.250000", "095614.250000", "095614.250000", "095614.250000", "095614.250000", "095614.250000", "095714.203000", "095714.203000", "095714.203000", "095714.203000", "095714.203000", "095714.203000", "095714.218000", "095714.218000", "095714.218000", "095714.218000", "095714.218000", "095714.218000", "095714.218000", "095714.218000", "095714.234000", "095714.234000", "095714.234000", "095714.234000", "095714.234000", "095714.234000", "095714.250000", "095714.250000", "095714.250000", "095714.250000", "095714.265000", "095754.203000", "095754.203000", "095754.203000", "095754.203000", "095754.203000", "095754.203000", "095754.218000", "095754.218000", "095754.218000", "095754.218000", "095754.218000", "095754.218000", "095754.234000", "095754.234000", "095754.234000", "095754.234000", "095754.234000", "095754.234000", "095854.203000", "095854.203000", "095854.203000", "095854.203000", "095854.203000", "095854.203000", "095854.218000", "095854.218000", "095854.218000", "095854.218000", "095854.218000", "095854.218000", "095854.218000", "095854.218000", "095854.234000", "095854.234000", "095854.234000", "095854.234000", "095854.234000", "095854.234000", "095854.234000", "095854.234000", "095854.250000", "095854.250000", "095854.250000", "095854.250000", "095954.203000", "095954.203000", "095954.203000", "095954.203000", "095954.203000", "095954.218000", "095954.218000", "095954.218000", "095954.218000", "095954.218000", "095954.218000", "095954.218000", "095954.218000", "095954.234000", "095954.234000", "095954.234000", "095954.234000", "095954.234000", "095954.234000", "095954.250000", "095954.250000", "095954.250000", "095954.250000", "095954.250000", "095954.250000", "095954.250000", "100054.203000", "100054.203000", "100054.203000", "100054.203000", "100054.203000", "100054.203000", "100054.218000", "100054.218000", "100054.218000", "100054.218000", "100054.218000", "100054.234000", "100054.234000", "100054.234000", "100054.234000", "100054.234000", "100054.234000", "100054.234000", "100054.234000", "100054.250000", "100054.250000", "100054.250000", "100054.250000", "100054.250000", "100054.250000", "100054.250000", "100154.203000", "100154.203000", "100154.203000", "100154.203000", "100154.203000", "100154.203000", "100154.218000", "100154.218000", "100154.218000", "100154.218000", "100154.218000", "100154.218000", "100154.218000", "100154.218000", "100154.234000", "100154.234000", "100154.234000", "100154.234000", "100154.234000", "100154.234000", "100154.234000", "100154.234000", "100154.250000", "100154.250000", "100154.250000", "100154.250000", "100254.203000", "100254.203000", "100254.203000", "100254.203000", "100254.203000", "100254.203000", "100254.218000", "100254.218000", "100254.218000", "100254.218000", "100254.218000", "100254.218000", "100254.218000", "100254.218000", "100254.218000", "100254.234000", "100254.234000", "100254.234000", "100254.234000", "100254.234000", "100254.234000", "100254.234000", "100254.234000", "100254.234000", "100254.250000", "100254.250000", "100354.203000", "100354.203000", "100354.203000", "100354.203000", "100354.218000", "100354.218000", "100354.218000", "100354.234000", "100354.234000", "100354.234000", "100354.234000", "100354.234000", "100354.234000", "100354.234000", "100354.234000", "100354.234000", "100354.250000", "100354.250000", "100354.250000", "100354.250000", "100354.250000", "100354.250000", "100354.250000", "100354.250000", "100354.250000", "100354.265000", "100454.203000", "100454.203000", "100454.203000", "100454.203000", "100454.203000", "100454.203000", "100454.203000", "100454.218000", "100454.218000", "100454.218000", "100454.218000", "100454.218000", "100454.218000", "100454.218000", "100454.218000", "100454.234000", "100454.234000", "100454.234000", "100454.234000", "100454.234000", "100454.250000", "100454.250000", "100454.250000", "100454.250000", "100454.250000", "100454.250000", "100554.203000", "100554.203000", "100554.203000", "100554.203000", "100554.203000", "100554.203000", "100554.218000", "100554.218000", "100554.218000", "100554.218000", "100554.218000", "100554.218000", "100554.218000", "100554.218000", "100554.218000", "100554.234000", "100554.234000", "100554.234000", "100554.234000", "100554.234000", "100554.234000", "100554.234000", "100554.234000", "100554.234000", "100554.250000", "100554.250000", "100654.203000", "100654.203000", "100654.203000", "100654.203000", "100654.203000", "100654.203000", "100654.218000", "100654.218000", "100654.218000", "100654.218000", "100654.234000", "100654.234000", "100654.234000", "100654.234000", "100654.234000", "100654.234000", "100654.234000", "100654.250000", "100654.250000", "100654.250000", "100654.250000", "100654.250000", "100654.250000", "100654.265000", "100654.265000", "100654.281000", "100754.203000", "100754.203000", "100754.218000", "100754.218000", "100754.218000", "100754.218000", "100754.218000", "100754.218000", "100754.218000", "100754.218000", "100754.234000", "100754.234000", "100754.234000", "100754.234000", "100754.234000", "100754.234000", "100754.234000", "100754.234000", "100754.234000", "100754.250000", "100754.250000", "100754.250000", "100754.250000", "100754.250000", "100754.265000", "100754.265000", "100837.781000", "100837.796000", "100837.796000", "100837.796000", "100837.796000", "100837.812000", "100837.812000", "100837.812000", "100837.812000", "100837.812000", "100837.812000", "100837.812000", "100837.812000", "100837.812000", "100837.828000", "100837.828000", "100837.828000", "100837.828000", "100837.828000"],
      "DataSetTrailingPadding": [
        "\u0000\u0000\u0000\u0000\u0000\u0000\u0000\u0000\u0000\u0000\u0000\u0000\u0000\u0000\u0000\u0000\u0000\u0000\u0000\u0000\u0000\u0000\u0000\u0000\u0000\u0000",
        "\u0000\u0000\u0000\u0000\u0000\u0000\u0000\u0000\u0000\u0000\u0000\u0000\u0000\u0000\u0000\u0000\u0000\u0000\u0000\u0000\u0000\u0000\u0000\u0000",
        "\u0000\u0000\u0000\u0000\u0000\u0000\u0000\u0000\u0000\u0000\u0000\u0000\u0000\u0000\u0000\u0000\u0000\u0000\u0000\u0000\u0000\u0000\u0000\u0000",
        "\u0000\u0000\u0000\u0000\u0000\u0000\u0000\u0000\u0000\u0000\u0000\u0000\u0000\u0000\u0000\u0000\u0000\u0000\u0000\u0000\u0000\u0000\u0000\u0000",
        "\u0000\u0000\u0000\u0000\u0000\u0000\u0000\u0000\u0000\u0000\u0000\u0000\u0000\u0000\u0000\u0000\u0000\u0000\u0000\u0000\u0000\u0000\u0000\u0000\u0000\u0000",
        "\u0000\u0000\u0000\u0000\u0000\u0000\u0000\u0000\u0000\u0000\u0000\u0000\u0000\u0000\u0000\u0000\u0000\u0000\u0000\u0000\u0000\u0000\u0000\u0000\u0000\u0000",
        "\u0000\u0000\u0000\u0000\u0000\u0000\u0000\u0000\u0000\u0000\u0000\u0000\u0000\u0000\u0000\u0000\u0000\u0000\u0000\u0000\u0000\u0000\u0000\u0000",
        "\u0000\u0000\u0000\u0000\u0000\u0000\u0000\u0000\u0000\u0000\u0000\u0000\u0000\u0000\u0000\u0000\u0000\u0000\u0000\u0000\u0000\u0000\u0000\u0000",
        "\u0000\u0000\u0000\u0000\u0000\u0000\u0000\u0000\u0000\u0000\u0000\u0000\u0000\u0000\u0000\u0000\u0000\u0000\u0000\u0000\u0000\u0000\u0000\u0000",
        "\u0000\u0000\u0000\u0000\u0000\u0000\u0000\u0000\u0000\u0000\u0000\u0000\u0000\u0000\u0000\u0000\u0000\u0000\u0000\u0000\u0000\u0000",
        "\u0000\u0000\u0000\u0000\u0000\u0000\u0000\u0000\u0000\u0000\u0000\u0000\u0000\u0000\u0000\u0000\u0000\u0000\u0000\u0000\u0000\u0000",
        "\u0000\u0000\u0000\u0000\u0000\u0000\u0000\u0000\u0000\u0000\u0000\u0000\u0000\u0000\u0000\u0000\u0000\u0000\u0000\u0000",
        "\u0000\u0000\u0000\u0000\u0000\u0000\u0000\u0000\u0000\u0000\u0000\u0000\u0000\u0000\u0000\u0000\u0000\u0000\u0000\u0000",
        "\u0000\u0000\u0000\u0000\u0000\u0000\u0000\u0000\u0000\u0000\u0000\u0000\u0000\u0000\u0000\u0000\u0000\u0000\u0000\u0000\u0000\u0000",
        "\u0000\u0000\u0000\u0000\u0000\u0000\u0000\u0000\u0000\u0000\u0000\u0000\u0000\u0000\u0000\u0000\u0000\u0000\u0000\u0000\u0000\u0000",
        "\u0000\u0000\u0000\u0000\u0000\u0000\u0000\u0000\u0000\u0000\u0000\u0000\u0000\u0000\u0000\u0000\u0000\u0000\u0000\u0000\u0000\u0000",
        "\u0000\u0000\u0000\u0000\u0000\u0000\u0000\u0000\u0000\u0000\u0000\u0000\u0000\u0000\u0000\u0000\u0000\u0000\u0000\u0000",
        "\u0000\u0000\u0000\u0000\u0000\u0000\u0000\u0000\u0000\u0000\u0000\u0000\u0000\u0000\u0000\u0000\u0000\u0000\u0000\u0000",
        "\u0000\u0000\u0000\u0000\u0000\u0000\u0000\u0000\u0000\u0000\u0000\u0000\u0000\u0000\u0000\u0000\u0000\u0000\u0000\u0000\u0000\u0000",
        "\u0000\u0000\u0000\u0000\u0000\u0000\u0000\u0000\u0000\u0000\u0000\u0000\u0000\u0000\u0000\u0000\u0000\u0000\u0000\u0000\u0000\u0000",
        "\u0000\u0000\u0000\u0000\u0000\u0000\u0000\u0000\u0000\u0000\u0000\u0000\u0000\u0000\u0000\u0000\u0000\u0000\u0000\u0000\u0000\u0000",
        "\u0000\u0000\u0000\u0000\u0000\u0000\u0000\u0000\u0000\u0000\u0000\u0000\u0000\u0000\u0000\u0000\u0000\u0000\u0000\u0000",
        "\u0000\u0000\u0000\u0000\u0000\u0000\u0000\u0000\u0000\u0000\u0000\u0000\u0000\u0000\u0000\u0000\u0000\u0000\u0000\u0000",
        "\u0000\u0000\u0000\u0000\u0000\u0000\u0000\u0000\u0000\u0000\u0000\u0000\u0000\u0000\u0000\u0000\u0000\u0000\u0000\u0000\u0000\u0000",
        "\u0000\u0000\u0000\u0000\u0000\u0000\u0000\u0000\u0000\u0000\u0000\u0000\u0000\u0000\u0000\u0000\u0000\u0000\u0000\u0000\u0000\u0000",
        "\u0000\u0000\u0000\u0000\u0000\u0000\u0000\u0000\u0000\u0000\u0000\u0000\u0000\u0000\u0000\u0000\u0000\u0000\u0000\u0000\u0000\u0000",
        "\u0000\u0000\u0000\u0000\u0000\u0000\u0000\u0000\u0000\u0000\u0000\u0000\u0000\u0000\u0000\u0000\u0000\u0000\u0000\u0000",
        "\u0000\u0000\u0000\u0000\u0000\u0000\u0000\u0000\u0000\u0000\u0000\u0000\u0000\u0000\u0000\u0000\u0000\u0000\u0000\u0000",
        "\u0000\u0000\u0000\u0000\u0000\u0000\u0000\u0000\u0000\u0000\u0000\u0000\u0000\u0000\u0000\u0000\u0000\u0000\u0000\u0000\u0000\u0000",
        "\u0000\u0000\u0000\u0000\u0000\u0000\u0000\u0000\u0000\u0000\u0000\u0000\u0000\u0000\u0000\u0000\u0000\u0000\u0000\u0000\u0000\u0000",
        "\u0000\u0000\u0000\u0000\u0000\u0000\u0000\u0000\u0000\u0000\u0000\u0000\u0000\u0000\u0000\u0000\u0000\u0000\u0000\u0000\u0000\u0000",
        "\u0000\u0000\u0000\u0000\u0000\u0000\u0000\u0000\u0000\u0000\u0000\u0000\u0000\u0000\u0000\u0000\u0000\u0000\u0000\u0000",
        "\u0000\u0000\u0000\u0000\u0000\u0000\u0000\u0000\u0000\u0000\u0000\u0000\u0000\u0000\u0000\u0000\u0000\u0000\u0000\u0000",
        "\u0000\u0000\u0000\u0000\u0000\u0000\u0000\u0000\u0000\u0000\u0000\u0000\u0000\u0000\u0000\u0000\u0000\u0000\u0000\u0000\u0000\u0000",
        "\u0000\u0000\u0000\u0000\u0000\u0000\u0000\u0000\u0000\u0000\u0000\u0000\u0000\u0000\u0000\u0000\u0000\u0000\u0000\u0000\u0000\u0000\u0000\u0000",
        "\u0000\u0000\u0000\u0000\u0000\u0000\u0000\u0000\u0000\u0000\u0000\u0000\u0000\u0000\u0000\u0000\u0000\u0000\u0000\u0000",
        "\u0000\u0000\u0000\u0000\u0000\u0000\u0000\u0000\u0000\u0000\u0000\u0000\u0000\u0000\u0000\u0000\u0000\u0000\u0000\u0000",
        "\u0000\u0000\u0000\u0000\u0000\u0000\u0000\u0000\u0000\u0000\u0000\u0000\u0000\u0000\u0000\u0000\u0000\u0000\u0000\u0000",
        "\u0000\u0000\u0000\u0000\u0000\u0000\u0000\u0000\u0000\u0000\u0000\u0000\u0000\u0000\u0000\u0000\u0000\u0000\u0000\u0000\u0000\u0000",
        "\u0000\u0000\u0000\u0000\u0000\u0000\u0000\u0000\u0000\u0000\u0000\u0000\u0000\u0000\u0000\u0000\u0000\u0000\u0000\u0000\u0000\u0000\u0000\u0000",
        "\u0000\u0000\u0000\u0000\u0000\u0000\u0000\u0000\u0000\u0000\u0000\u0000\u0000\u0000\u0000\u0000\u0000\u0000\u0000\u0000",
        "\u0000\u0000\u0000\u0000\u0000\u0000\u0000\u0000\u0000\u0000\u0000\u0000\u0000\u0000\u0000\u0000\u0000\u0000\u0000\u0000",
        "\u0000\u0000\u0000\u0000\u0000\u0000\u0000\u0000\u0000\u0000\u0000\u0000\u0000\u0000\u0000\u0000\u0000\u0000\u0000\u0000",
        "\u0000\u0000\u0000\u0000\u0000\u0000\u0000\u0000\u0000\u0000\u0000\u0000\u0000\u0000\u0000\u0000\u0000\u0000\u0000\u0000\u0000\u0000",
        "\u0000\u0000\u0000\u0000\u0000\u0000\u0000\u0000\u0000\u0000\u0000\u0000\u0000\u0000\u0000\u0000\u0000\u0000\u0000\u0000\u0000\u0000",
        "\u0000\u0000\u0000\u0000\u0000\u0000\u0000\u0000\u0000\u0000\u0000\u0000\u0000\u0000\u0000\u0000\u0000\u0000\u0000\u0000",
        "\u0000\u0000\u0000\u0000\u0000\u0000\u0000\u0000\u0000\u0000\u0000\u0000\u0000\u0000\u0000\u0000\u0000\u0000\u0000\u0000",
        "\u0000\u0000\u0000\u0000\u0000\u0000\u0000\u0000\u0000\u0000\u0000\u0000\u0000\u0000\u0000\u0000\u0000\u0000\u0000\u0000",
        "\u0000\u0000\u0000\u0000\u0000\u0000\u0000\u0000\u0000\u0000\u0000\u0000\u0000\u0000\u0000\u0000\u0000\u0000\u0000\u0000\u0000\u0000",
        "\u0000\u0000\u0000\u0000\u0000\u0000\u0000\u0000\u0000\u0000\u0000\u0000\u0000\u0000\u0000\u0000\u0000\u0000\u0000\u0000\u0000\u0000",
        "\u0000\u0000\u0000\u0000\u0000\u0000\u0000\u0000\u0000\u0000\u0000\u0000\u0000\u0000\u0000\u0000\u0000\u0000\u0000\u0000",
        "\u0000\u0000\u0000\u0000\u0000\u0000\u0000\u0000\u0000\u0000\u0000\u0000\u0000\u0000\u0000\u0000\u0000\u0000\u0000\u0000",
        "\u0000\u0000\u0000\u0000\u0000\u0000\u0000\u0000\u0000\u0000\u0000\u0000\u0000\u0000\u0000\u0000\u0000\u0000\u0000\u0000",
        "\u0000\u0000\u0000\u0000\u0000\u0000\u0000\u0000\u0000\u0000\u0000\u0000\u0000\u0000\u0000\u0000\u0000\u0000\u0000\u0000\u0000\u0000",
        "\u0000\u0000\u0000\u0000\u0000\u0000\u0000\u0000\u0000\u0000\u0000\u0000\u0000\u0000\u0000\u0000\u0000\u0000\u0000\u0000\u0000\u0000",
        "\u0000\u0000\u0000\u0000\u0000\u0000\u0000\u0000\u0000\u0000\u0000\u0000\u0000\u0000\u0000\u0000\u0000\u0000\u0000\u0000",
        "\u0000\u0000\u0000\u0000\u0000\u0000\u0000\u0000\u0000\u0000\u0000\u0000\u0000\u0000\u0000\u0000\u0000\u0000",
        "\u0000\u0000\u0000\u0000\u0000\u0000\u0000\u0000\u0000\u0000\u0000\u0000\u0000\u0000\u0000\u0000\u0000\u0000",
        "\u0000\u0000\u0000\u0000\u0000\u0000\u0000\u0000\u0000\u0000\u0000\u0000\u0000\u0000\u0000\u0000",
        "\u0000\u0000\u0000\u0000\u0000\u0000\u0000\u0000\u0000\u0000\u0000\u0000\u0000\u0000\u0000\u0000\u0000\u0000",
        "\u0000\u0000\u0000\u0000\u0000\u0000\u0000\u0000\u0000\u0000\u0000\u0000\u0000\u0000\u0000\u0000",
        "\u0000\u0000\u0000\u0000\u0000\u0000\u0000\u0000\u0000\u0000\u0000\u0000\u0000\u0000\u0000\u0000",
        "\u0000\u0000\u0000\u0000\u0000\u0000\u0000\u0000\u0000\u0000\u0000\u0000\u0000\u0000\u0000\u0000\u0000\u0000",
        "\u0000\u0000\u0000\u0000\u0000\u0000\u0000\u0000\u0000\u0000\u0000\u0000\u0000\u0000\u0000\u0000",
        "\u0000\u0000\u0000\u0000\u0000\u0000\u0000\u0000\u0000\u0000\u0000\u0000\u0000\u0000\u0000\u0000\u0000\u0000",
        "\u0000\u0000\u0000\u0000\u0000\u0000\u0000\u0000\u0000\u0000\u0000\u0000\u0000\u0000\u0000\u0000",
        "\u0000\u0000\u0000\u0000\u0000\u0000\u0000\u0000\u0000\u0000\u0000\u0000\u0000\u0000\u0000\u0000",
        "\u0000\u0000\u0000\u0000\u0000\u0000\u0000\u0000\u0000\u0000\u0000\u0000\u0000\u0000\u0000\u0000\u0000\u0000",
        "\u0000\u0000\u0000\u0000\u0000\u0000\u0000\u0000\u0000\u0000\u0000\u0000\u0000\u0000\u0000\u0000",
        "\u0000\u0000\u0000\u0000\u0000\u0000\u0000\u0000\u0000\u0000\u0000\u0000\u0000\u0000\u0000\u0000\u0000\u0000",
        "\u0000\u0000\u0000\u0000\u0000\u0000\u0000\u0000\u0000\u0000\u0000\u0000\u0000\u0000\u0000\u0000",
        "\u0000\u0000\u0000\u0000\u0000\u0000\u0000\u0000\u0000\u0000\u0000\u0000\u0000\u0000\u0000\u0000",
        "\u0000\u0000\u0000\u0000\u0000\u0000\u0000\u0000\u0000\u0000\u0000\u0000\u0000\u0000\u0000\u0000\u0000\u0000\u0000\u0000",
        "\u0000\u0000\u0000\u0000\u0000\u0000\u0000\u0000\u0000\u0000\u0000\u0000\u0000\u0000\u0000\u0000",
        "\u0000\u0000\u0000\u0000\u0000\u0000\u0000\u0000\u0000\u0000\u0000\u0000\u0000\u0000\u0000\u0000",
        "\u0000\u0000\u0000\u0000\u0000\u0000\u0000\u0000\u0000\u0000\u0000\u0000\u0000\u0000\u0000\u0000",
        "\u0000\u0000\u0000\u0000\u0000\u0000\u0000\u0000\u0000\u0000\u0000\u0000\u0000\u0000\u0000\u0000",
        "\u0000\u0000\u0000\u0000\u0000\u0000\u0000\u0000\u0000\u0000\u0000\u0000\u0000\u0000\u0000\u0000\u0000\u0000",
