{
  "AcquisitionMatrixPE": 110,
  "AcquisitionNumber": 1,
  "AcquisitionTime": "16:37:23.287500",
  "BandwidthPerPixelPhaseEncode": 26.35,
  "BaseResolution": 110,
  "CoilString": "C:HEA;HEP",
  "ConversionSoftware": "dcm2niix",
  "ConversionSoftwareVersion": "v1.0.20190410  GCC6.3.0",
  "DerivedVendorReportedEchoSpacing": 0.000690012,
  "DeviceSerialNumber": "35422",
  "DwellTime": 2.6e-06,
  "EchoTime": 0.03,
  "EffectiveEchoSpacing": 0.000345006,
  "FlipAngle": 85,
  "ImageComments": "Unaliased_MB4_PE4_LB",
  "ImageOrientationPatientDICOM": [0.999782, 0.00387614, 0.0205119, 1.90961e-10, 0.98261, -0.185684],
  "ImageType": [
    "ORIGINAL",
    "PRIMARY",
    "FMRI",
    "NONE",
    "MB",
    "ND",
    "MOSAIC"
],
  "ImagingFrequency": 123.177,
  "InPlanePhaseEncodingDirectionDICOM": "ROW",
  "InstitutionAddress": "kwanakro_599_C4F276_Seoul_KR_ZIP",
  "InstitutionName": "SNUBIC",
  "InstitutionalDepartmentName": "Department",
  "MRAcquisitionType": "2D",
  "MagneticFieldStrength": 3,
  "Manufacturer": "Siemens",
  "ManufacturersModelName": "TrioTim",
  "Modality": "MR",
  "MultibandAccelerationFactor": 4,
  "ParallelReductionFactorInPlane": 2,
  "PartialFourier": 1,
  "PatientPosition": "HFS",
  "PercentPhaseFOV": 100,
  "PhaseEncodingDirection": "i-",
  "PhaseEncodingSteps": 110,
  "PhaseResolution": 1,
  "PixelBandwidth": 1748,
  "ProcedureStepDescription": "SNU_SAVED",
  "ProtocolName": "WMGNG1_MB4_LR_SBRef",
  "PulseSequenceDetails": "%CustomerSeq%_cmrr_mbep2d_bold",
  "ReceiveCoilName": "32Ch_Head",
  "ReconMatrixPE": 110,
  "RefLinesPE": 32,
  "RepetitionTime": 1.5,
  "SAR": 0.138163,
  "ScanOptions": "FS",
  "ScanningSequence": "EP",
  "SequenceName": "epfid2d1_110",
  "SequenceVariant": "SK_SS",
  "SeriesDescription": "WMGNG1_MB4_LR_SBRef",
  "SeriesNumber": 15,
  "ShimSetting": [-4124, -29809, -2070, 611, 28, 44, -164, -8],
  "SliceThickness": 2.3,
  "SliceTiming": [0, 0.6575, 1.3175, 0.47, 1.1275, 0.2825, 0.94, 0.0925, 0.7525, 1.41, 0.5625, 1.2225, 0.375, 1.035, 0.1875, 0.845, 0, 0.6575, 1.3175, 0.47, 1.1275, 0.2825, 0.94, 0.0925, 0.7525, 1.41, 0.5625, 1.2225, 0.375, 1.035, 0.1875, 0.845, 0, 0.6575, 1.3175, 0.47, 1.1275, 0.2825, 0.94, 0.0925, 0.7525, 1.41, 0.5625, 1.2225, 0.375, 1.035, 0.1875, 0.845, 0, 0.6575, 1.3175, 0.47, 1.1275, 0.2825, 0.94, 0.0925, 0.7525, 1.41, 0.5625, 1.2225, 0.375, 1.035, 0.1875, 0.845],
  "SoftwareVersions": "syngo_MR_B17",
  "SpacingBetweenSlices": 2.3,
  "StationName": "MRC35422",
  "TaskName": "wmgng",
  "TotalReadoutTime": 0.0376057,
  "TxRefAmp": 327.115,
  "dcmmeta_affine": [
    [-2.326765537261963, 4.4441925139970806e-10, 0.04801241308450699, 131.0078582763672],
    [-0.009020841680467129, 2.2868003845214844, -0.42697978019714355, -98.8459243774414],
    [0.047736868262290955, 0.4321369528770447, 2.259509563446045, -58.565093994140625],
    [0.0, 0.0, 0.0, 1.0]
],
  "dcmmeta_reorient_transform": [
    [0.0, -1.0, 0.0, 109.0],
    [1.0, 0.0, 0.0, 0.0],
    [0.0, 0.0, 1.0, 0.0],
    [0.0, 0.0, 0.0, 1.0]
],
  "dcmmeta_shape": [110, 110, 64, 357],
  "dcmmeta_slice_dim": 2,
  "dcmmeta_version": 0.6,
  "global": {
    "const": {
      "AcquisitionMatrix": [0, 110, 110, 0],
      "AngioFlag": "N",
      "BitsAllocated": 16,
      "BitsStored": 12,
      "Columns": 880,
      "EchoNumbers": 1,
      "EchoTime": 30.0,
      "EchoTrainLength": 1,
      "FlipAngle": 85.0,
      "HighBit": 11,
      "ImageOrientationPatient": [0.99978209424338, 0.00387614303718, 0.02051193665829, 1.909614e-10, 0.98260954033987, -0.1856838475287],
      "ImagePositionPatient": [-1026.8125841025, -1034.3064532076, 136.53185962273],
      "ImageType": [
        "ORIGINAL",
        "PRIMARY",
        "FMRI",
        "NONE",
        "MB",
        "ND",
        "MOSAIC"
],
      "ImagedNucleus": "1H",
      "ImagingFrequency": 123.17735,
      "InPlanePhaseEncodingDirection": "ROW",
      "MRAcquisitionType": "2D",
      "MagneticFieldStrength": 3.0,
      "Manufacturer": "SIEMENS",
      "ManufacturerModelName": "TrioTim",
      "Modality": "MR",
      "NumberOfAverages": 1.0,
      "NumberOfPhaseEncodingSteps": 110,
      "PercentPhaseFieldOfView": 100.0,
      "PercentSampling": 100.0,
      "PerformedProcedureStepStartTime": "161225.703000",
      "PhotometricInterpretation": "MONOCHROME2",
      "PixelBandwidth": 1748.0,
      "PixelRepresentation": 0,
      "PixelSpacing": [2.3272726535797, 2.3272726535797],
      "ProtocolName": "WMGNG1_MB4_LR_SBRef",
      "ReferencedPerformedProcedureStepSequence": [
        {
          "ReferencedSOPClassUID": "1.2.840.10008.3.1.2.3.3",
          "ReferencedSOPInstanceUID": "1.3.12.2.1107.5.2.32.35422.30000020033000173859300000001"}
],
      "RepetitionTime": 1500.0,
      "Rows": 880,
      "SAR": 0.13816317345048,
      "SamplesPerPixel": 1,
      "ScanOptions": "FS",
      "ScanningSequence": "EP",
      "SequenceName": "epfid2d1_110",
      "SequenceVariant": [
        "SK",
        "SS"
],
      "SeriesDescription": "WMGNG1_MB4_LR_SBRef",
      "SeriesNumber": 15,
      "SeriesTime": "164431.546000",
      "SliceLocation": -36.449204481598,
      "SliceThickness": 2.2999999523163,
      "SmallestImagePixelValue": 0,
      "SoftwareVersions": "syngo MR B17",
      "SpacingBetweenSlices": 2.3000000169028,
      "SpecificCharacterSet": "ISO_IR 100",
      "StudyID": "1",
      "StudyTime": "161225.625000",
      "TransmitCoilName": "Body",
      "VariableFlipAngleFlag": "N",
      "WindowCenterWidthExplanation": "Algo1",
      "dBdt": 0.0},
    "slices": {}
  },
  "time": {
    "samples": {
      "AcquisitionNumber": [1, 2, 3, 4, 5, 6, 7, 8, 9, 10, 11, 12, 13, 14, 15, 16, 17, 18, 19, 20, 21, 22, 23, 24, 25, 26, 27, 28, 29, 30, 31, 32, 33, 34, 35, 36, 37, 38, 39, 40, 41, 42, 43, 44, 45, 46, 47, 48, 49, 50, 51, 52, 53, 54, 55, 56, 57, 58, 59, 60, 61, 62, 63, 64, 65, 66, 67, 68, 69, 70, 71, 72, 73, 74, 75, 76, 77, 78, 79, 80, 81, 82, 83, 84, 85, 86, 87, 88, 89, 90, 91, 92, 93, 94, 95, 96, 97, 98, 99, 100, 101, 102, 103, 104, 105, 106, 107, 108, 109, 110, 111, 112, 113, 114, 115, 116, 117, 118, 119, 120, 121, 122, 123, 124, 125, 126, 127, 128, 129, 130, 131, 132, 133, 134, 135, 136, 137, 138, 139, 140, 141, 142, 143, 144, 145, 146, 147, 148, 149, 150, 151, 152, 153, 154, 155, 156, 157, 158, 159, 160, 161, 162, 163, 164, 165, 166, 167, 168, 169, 170, 171, 172, 173, 174, 175, 176, 177, 178, 179, 180, 181, 182, 183, 184, 185, 186, 187, 188, 189, 190, 191, 192, 193, 194, 195, 196, 197, 198, 199, 200, 201, 202, 203, 204, 205, 206, 207, 208, 209, 210, 211, 212, 213, 214, 215, 216, 217, 218, 219, 220, 221, 222, 223, 224, 225, 226, 227, 228, 229, 230, 231, 232, 233, 234, 235, 236, 237, 238, 239, 240, 241, 242, 243, 244, 245, 246, 247, 248, 249, 250, 251, 252, 253, 254, 255, 256, 257, 258, 259, 260, 261, 262, 263, 264, 265, 266, 267, 268, 269, 270, 271, 272, 273, 274, 275, 276, 277, 278, 279, 280, 281, 282, 283, 284, 285, 286, 287, 288, 289, 290, 291, 292, 293, 294, 295, 296, 297, 298, 299, 300, 301, 302, 303, 304, 305, 306, 307, 308, 309, 310, 311, 312, 313, 314, 315, 316, 317, 318, 319, 320, 321, 322, 323, 324, 325, 326, 327, 328, 329, 330, 331, 332, 333, 334, 335, 336, 337, 338, 339, 340, 341, 342, 343, 344, 345, 346, 347, 348, 349, 350, 351, 352, 353, 354, 355, 356, 357],
      "AcquisitionTime": ["163723.287500", "163724.792500", "163726.297500", "163727.805000", "163729.310000", "163730.817500", "163732.322500", "163733.827500", "163735.335000", "163736.840000", "163738.347500", "163739.852500", "163741.360000", "163742.865000", "163744.370000", "163745.877500", "163747.382500", "163748.890000", "163750.395000", "163751.900000", "163753.407500", "163754.912500", "163756.420000", "163757.925000", "163759.430000", "163800.937500", "163802.442500", "163803.950000", "163805.455000", "163806.960000", "163808.467500", "163809.972500", "163811.480000", "163812.985000", "163814.492500", "163815.997500", "163817.502500", "163819.010000", "163820.515000", "163822.022500", "163823.527500", "163825.032500", "163826.540000", "163828.045000", "163829.552500", "163831.057500", "163832.562500", "163834.070000", "163835.575000", "163837.082500", "163838.587500", "163840.092500", "163841.600000", "163843.105000", "163844.612500", "163846.117500", "163847.625000", "163849.130000", "163850.635000", "163852.142500", "163853.647500", "163855.155000", "163856.660000", "163858.165000", "163859.672500", "163901.177500", "163902.685000", "163904.190000", "163905.695000", "163907.202500", "163908.707500", "163910.215000", "163911.720000", "163913.227500", "163914.732500", "163916.237500", "163917.745000", "163919.250000", "163920.757500", "163922.262500", "163923.767500", "163925.275000", "163926.780000", "163928.287500", "163929.792500", "163931.297500", "163932.805000", "163934.310000", "163935.817500", "163937.322500", "163938.827500", "163940.335000", "163941.840000", "163943.347500", "163944.852500", "163946.360000", "163947.865000", "163949.370000", "163950.877500", "163952.382500", "163953.890000", "163955.395000", "163956.900000", "163958.407500", "163959.912500", "164001.420000", "164002.925000", "164004.430000", "164005.937500", "164007.442500", "164008.950000", "164010.455000", "164011.960000", "164013.467500", "164014.972500", "164016.480000", "164017.985000", "164019.492500", "164020.997500", "164022.502500", "164024.010000", "164025.515000", "164027.022500", "164028.527500", "164030.032500", "164031.540000", "164033.045000", "164034.552500", "164036.057500", "164037.562500", "164039.070000", "164040.575000", "164042.082500", "164043.587500", "164045.092500", "164046.600000", "164048.105000", "164049.612500", "164051.117500", "164052.625000", "164054.130000", "164055.635000", "164057.142500", "164058.647500", "164100.155000", "164101.660000", "164103.165000", "164104.672500", "164106.177500", "164107.685000", "164109.190000", "164110.695000", "164112.202500", "164113.707500", "164115.215000", "164116.720000", "164118.227500", "164119.732500", "164121.237500", "164122.745000", "164124.250000", "164125.757500", "164127.262500", "164128.767500", "164130.275000", "164131.780000", "164133.287500", "164134.792500", "164136.297500", "164137.805000", "164139.310000", "164140.817500", "164142.322500", "164143.827500", "164145.335000", "164146.840000", "164148.347500", "164149.852500", "164151.360000", "164152.865000", "164154.370000", "164155.877500", "164157.382500", "164158.890000", "164200.395000", "164201.900000", "164203.407500", "164204.912500", "164206.420000", "164207.925000", "164209.430000", "164210.937500", "164212.442500", "164213.950000", "164215.455000", "164216.960000", "164218.467500", "164219.972500", "164221.480000", "164222.985000", "164224.492500", "164225.997500", "164227.502500", "164229.010000", "164230.515000", "164232.022500", "164233.527500", "164235.032500", "164236.540000", "164238.045000", "164239.552500", "164241.057500", "164242.562500", "164244.070000", "164245.575000", "164247.082500", "164248.587500", "164250.092500", "164251.600000", "164253.105000", "164254.612500", "164256.117500", "164257.625000", "164259.130000", "164300.635000", "164302.142500", "164303.647500", "164305.155000", "164306.660000", "164308.165000", "164309.672500", "164311.177500", "164312.685000", "164314.190000", "164315.695000", "164317.202500", "164318.707500", "164320.215000", "164321.720000", "164323.227500", "164324.732500", "164326.237500", "164327.745000", "164329.250000", "164330.757500", "164332.262500", "164333.767500", "164335.275000", "164336.780000", "164338.287500", "164339.792500", "164341.297500", "164342.805000", "164344.310000", "164345.817500", "164347.322500", "164348.827500", "164350.335000", "164351.840000", "164353.347500", "164354.852500", "164356.360000", "164357.865000", "164359.370000", "164400.877500", "164402.382500", "164403.890000", "164405.395000", "164406.900000", "164408.407500", "164409.912500", "164411.420000", "164412.925000", "164414.430000", "164415.937500", "164417.442500", "164418.950000", "164420.455000", "164421.960000", "164423.467500", "164424.972500", "164426.480000", "164427.985000", "164429.492500", "164430.997500", "164432.502500", "164434.010000", "164435.515000", "164437.022500", "164438.527500", "164440.032500", "164441.540000", "164443.045000", "164444.552500", "164446.057500", "164447.562500", "164449.070000", "164450.575000", "164452.082500", "164453.587500", "164455.092500", "164456.600000", "164458.105000", "164459.612500", "164501.117500", "164502.625000", "164504.130000", "164505.635000", "164507.142500", "164508.647500", "164510.155000", "164511.660000", "164513.165000", "164514.672500", "164516.177500", "164517.685000", "164519.190000", "164520.695000", "164522.202500", "164523.707500", "164525.215000", "164526.720000", "164528.227500", "164529.732500", "164531.237500", "164532.745000", "164534.250000", "164535.757500", "164537.262500", "164538.767500", "164540.275000", "164541.780000", "164543.287500", "164544.792500", "164546.297500", "164547.805000", "164549.310000", "164550.817500", "164552.322500", "164553.827500", "164555.335000", "164556.840000", "164558.347500", "164559.852500", "164601.360000", "164602.865000", "164604.370000", "164605.877500", "164607.382500", "164608.890000", "164610.395000", "164611.900000", "164613.407500", "164614.912500", "164616.420000", "164617.925000", "164619.430000"],
      "ContentTime": ["164431.546000", "164431.562000", "164431.562000", "164431.562000", "164431.562000", "164531.546000", "164531.546000", "164531.546000", "164531.562000", "164531.562000", "164531.562000", "164531.562000", "164531.562000", "164531.562000", "164531.562000", "164531.562000", "164531.562000", "164531.578000", "164531.578000", "164531.578000", "164531.578000", "164531.578000", "164531.578000", "164531.578000", "164531.578000", "164531.578000", "164531.593000", "164531.593000", "164531.593000", "164531.593000", "164531.593000", "164531.593000", "164631.546000", "164631.546000", "164631.546000", "164631.546000", "164631.562000", "164631.562000", "164631.562000", "164631.562000", "164631.562000", "164631.562000", "164631.562000", "164631.562000", "164631.578000", "164631.578000", "164631.578000", "164631.578000", "164631.578000", "164631.578000", "164631.578000", "164631.593000", "164631.593000", "164631.593000", "164631.593000", "164631.593000", "164631.609000", "164631.609000", "164731.546000", "164731.546000", "164731.546000", "164731.562000", "164731.562000", "164731.562000", "164731.562000", "164731.562000", "164731.562000", "164731.562000", "164731.562000", "164731.562000", "164731.578000", "164731.578000", "164731.578000", "164731.578000", "164731.578000", "164731.578000", "164731.578000", "164731.578000", "164731.578000", "164731.593000", "164731.593000", "164731.593000", "164731.593000", "164731.593000", "164831.546000", "164831.562000", "164831.562000", "164831.562000", "164831.562000", "164831.578000", "164831.578000", "164831.578000", "164831.578000", "164831.578000", "164831.578000", "164831.578000", "164831.578000", "164831.578000", "164831.593000", "164831.593000", "164831.593000", "164831.593000", "164831.593000", "164831.593000", "164831.593000", "164831.609000", "164831.609000", "164831.609000", "164831.609000", "164831.609000", "164931.546000", "164931.546000", "164931.546000", "164931.562000", "164931.562000", "164931.562000", "164931.562000", "164931.562000", "164931.562000", "164931.562000", "164931.562000", "164931.562000", "164931.578000", "164931.578000", "164931.578000", "164931.578000", "164931.578000", "164931.578000", "164931.578000", "164931.578000", "164931.578000", "164931.593000", "164931.593000", "164931.593000", "164931.593000", "164931.593000", "165031.546000", "165031.546000", "165031.546000", "165031.562000", "165031.562000", "165031.562000", "165031.562000", "165031.562000", "165031.562000", "165031.562000", "165031.562000", "165031.562000", "165031.578000", "165031.578000", "165031.578000", "165031.578000", "165031.578000", "165031.578000", "165031.593000", "165031.593000", "165031.593000", "165031.593000", "165031.609000", "165031.609000", "165031.609000", "165031.609000", "165131.546000", "165131.546000", "165131.546000", "165131.562000", "165131.562000", "165131.562000", "165131.562000", "165131.562000", "165131.562000", "165131.578000", "165131.578000", "165131.578000", "165131.578000", "165131.578000", "165131.578000", "165131.578000", "165131.578000", "165131.578000", "165131.593000", "165131.593000", "165131.593000", "165131.593000", "165131.593000", "165131.593000", "165131.593000", "165131.609000", "165231.546000", "165231.546000", "165231.546000", "165231.562000", "165231.562000", "165231.562000", "165231.562000", "165231.562000", "165231.562000", "165231.562000", "165231.562000", "165231.562000", "165231.578000", "165231.578000", "165231.578000", "165231.578000", "165231.578000", "165231.578000", "165231.578000", "165231.578000", "165231.578000", "165231.593000", "165231.593000", "165231.593000", "165231.593000", "165231.593000", "165311.546000", "165311.546000", "165311.562000", "165311.562000", "165311.562000", "165311.562000", "165311.562000", "165311.562000", "165311.562000", "165311.578000", "165311.578000", "165311.578000", "165311.578000", "165311.578000", "165311.578000", "165311.593000", "165311.593000", "165411.546000", "165411.546000", "165411.546000", "165411.562000", "165411.562000", "165411.562000", "165411.562000", "165411.562000", "165411.562000", "165411.562000", "165411.562000", "165411.578000", "165411.578000", "165411.578000", "165411.578000", "165411.578000", "165411.578000", "165411.593000", "165411.593000", "165411.593000", "165411.593000", "165411.593000", "165411.593000", "165411.593000", "165411.593000", "165411.593000", "165511.546000", "165511.546000", "165511.546000", "165511.562000", "165511.562000", "165511.562000", "165511.562000", "165511.578000", "165511.578000", "165511.578000", "165511.578000", "165511.578000", "165511.578000", "165511.593000", "165511.593000", "165511.593000", "165511.593000", "165511.593000", "165511.593000", "165511.593000", "165511.593000", "165511.609000", "165511.609000", "165511.609000", "165511.609000", "165511.609000", "165611.546000", "165611.546000", "165611.546000", "165611.562000", "165611.562000", "165611.562000", "165611.562000", "165611.562000", "165611.562000", "165611.562000", "165611.562000", "165611.562000", "165611.578000", "165611.578000", "165611.578000", "165611.578000", "165611.578000", "165611.578000", "165611.578000", "165611.578000", "165611.593000", "165611.593000", "165611.593000", "165611.593000", "165611.609000", "165611.609000", "165711.546000", "165711.546000", "165711.546000", "165711.562000", "165711.562000", "165711.562000", "165711.562000", "165711.562000", "165711.562000", "165711.578000", "165711.578000", "165711.578000", "165711.578000", "165711.578000", "165711.578000", "165711.578000", "165711.593000", "165711.593000", "165711.593000", "165711.593000", "165711.593000", "165711.593000", "165711.593000", "165711.593000", "165711.593000", "165711.609000", "165801.875000", "165801.875000", "165801.875000", "165801.875000", "165801.890000", "165801.890000", "165801.906000", "165801.906000", "165801.906000", "165801.921000", "165801.921000", "165801.921000", "165801.921000", "165801.921000", "165801.921000", "165801.921000", "165801.937000", "165801.937000", "165801.937000", "165801.937000", "165801.937000", "165801.937000"],
      "DataSetTrailingPadding": [
        "\u0000\u0000\u0000\u0000\u0000\u0000\u0000\u0000\u0000\u0000\u0000\u0000\u0000\u0000\u0000\u0000\u0000\u0000\u0000\u0000\u0000\u0000\u0000\u0000\u0000\u0000\u0000\u0000\u0000\u0000\u0000\u0000\u0000\u0000\u0000\u0000\u0000\u0000\u0000\u0000\u0000\u0000\u0000\u0000\u0000\u0000\u0000\u0000\u0000\u0000\u0000\u0000\u0000\u0000\u0000\u0000\u0000\u0000\u0000\u0000\u0000\u0000\u0000\u0000\u0000\u0000\u0000\u0000\u0000\u0000\u0000\u0000\u0000\u0000\u0000\u0000\u0000\u0000\u0000\u0000\u0000\u0000\u0000\u0000\u0000\u0000\u0000\u0000\u0000\u0000\u0000\u0000\u0000\u0000\u0000\u0000\u0000\u0000\u0000\u0000\u0000\u0000\u0000\u0000\u0000\u0000\u0000\u0000\u0000\u0000\u0000\u0000\u0000\u0000\u0000\u0000\u0000\u0000\u0000\u0000\u0000\u0000\u0000\u0000\u0000\u0000\u0000\u0000\u0000\u0000\u0000\u0000\u0000\u0000\u0000\u0000\u0000\u0000\u0000\u0000\u0000\u0000\u0000\u0000\u0000\u0000\u0000\u0000\u0000\u0000\u0000\u0000\u0000\u0000\u0000\u0000\u0000\u0000\u0000\u0000\u0000\u0000\u0000\u0000\u0000\u0000\u0000\u0000\u0000\u0000\u0000\u0000\u0000\u0000\u0000\u0000\u0000\u0000",
        "\u0000\u0000\u0000\u0000\u0000\u0000\u0000\u0000\u0000\u0000\u0000\u0000\u0000\u0000\u0000\u0000\u0000\u0000\u0000\u0000\u0000\u0000\u0000\u0000\u0000\u0000\u0000\u0000\u0000\u0000\u0000\u0000\u0000\u0000\u0000\u0000\u0000\u0000\u0000\u0000\u0000\u0000\u0000\u0000\u0000\u0000\u0000\u0000\u0000\u0000\u0000\u0000\u0000\u0000\u0000\u0000\u0000\u0000\u0000\u0000\u0000\u0000\u0000\u0000\u0000\u0000\u0000\u0000\u0000\u0000\u0000\u0000\u0000\u0000\u0000\u0000\u0000\u0000\u0000\u0000\u0000\u0000\u0000\u0000\u0000\u0000\u0000\u0000\u0000\u0000\u0000\u0000\u0000\u0000\u0000\u0000\u0000\u0000\u0000\u0000\u0000\u0000\u0000\u0000\u0000\u0000\u0000\u0000\u0000\u0000\u0000\u0000\u0000\u0000\u0000\u0000\u0000\u0000\u0000\u0000\u0000\u0000\u0000\u0000\u0000\u0000\u0000\u0000\u0000\u0000\u0000\u0000\u0000\u0000\u0000\u0000\u0000\u0000\u0000\u0000\u0000\u0000\u0000\u0000\u0000\u0000\u0000\u0000\u0000\u0000\u0000\u0000\u0000\u0000\u0000\u0000\u0000\u0000\u0000\u0000\u0000\u0000\u0000\u0000\u0000\u0000\u0000\u0000\u0000\u0000\u0000\u0000\u0000\u0000\u0000\u0000",
        "\u0000\u0000\u0000\u0000\u0000\u0000\u0000\u0000\u0000\u0000\u0000\u0000\u0000\u0000\u0000\u0000\u0000\u0000\u0000\u0000\u0000\u0000\u0000\u0000\u0000\u0000\u0000\u0000\u0000\u0000\u0000\u0000\u0000\u0000\u0000\u0000\u0000\u0000\u0000\u0000\u0000\u0000\u0000\u0000\u0000\u0000\u0000\u0000\u0000\u0000\u0000\u0000\u0000\u0000\u0000\u0000\u0000\u0000\u0000\u0000\u0000\u0000\u0000\u0000\u0000\u0000\u0000\u0000\u0000\u0000\u0000\u0000\u0000\u0000\u0000\u0000\u0000\u0000\u0000\u0000\u0000\u0000\u0000\u0000\u0000\u0000\u0000\u0000\u0000\u0000\u0000\u0000\u0000\u0000\u0000\u0000\u0000\u0000\u0000\u0000\u0000\u0000\u0000\u0000\u0000\u0000\u0000\u0000\u0000\u0000\u0000\u0000\u0000\u0000\u0000\u0000\u0000\u0000\u0000\u0000\u0000\u0000\u0000\u0000\u0000\u0000\u0000\u0000\u0000\u0000\u0000\u0000\u0000\u0000\u0000\u0000\u0000\u0000\u0000\u0000\u0000\u0000\u0000\u0000\u0000\u0000\u0000\u0000\u0000\u0000\u0000\u0000\u0000\u0000\u0000\u0000\u0000\u0000\u0000\u0000\u0000\u0000\u0000\u0000\u0000\u0000\u0000\u0000\u0000\u0000\u0000\u0000\u0000\u0000\u0000\u0000",
        "\u0000\u0000\u0000\u0000\u0000\u0000\u0000\u0000\u0000\u0000\u0000\u0000\u0000\u0000\u0000\u0000\u0000\u0000\u0000\u0000\u0000\u0000\u0000\u0000\u0000\u0000\u0000\u0000\u0000\u0000\u0000\u0000\u0000\u0000\u0000\u0000\u0000\u0000\u0000\u0000\u0000\u0000\u0000\u0000\u0000\u0000\u0000\u0000\u0000\u0000\u0000\u0000\u0000\u0000\u0000\u0000\u0000\u0000\u0000\u0000\u0000\u0000\u0000\u0000\u0000\u0000\u0000\u0000\u0000\u0000\u0000\u0000\u0000\u0000\u0000\u0000\u0000\u0000\u0000\u0000\u0000\u0000\u0000\u0000\u0000\u0000\u0000\u0000\u0000\u0000\u0000\u0000\u0000\u0000\u0000\u0000\u0000\u0000\u0000\u0000\u0000\u0000\u0000\u0000\u0000\u0000\u0000\u0000\u0000\u0000\u0000\u0000\u0000\u0000\u0000\u0000\u0000\u0000\u0000\u0000\u0000\u0000\u0000\u0000\u0000\u0000\u0000\u0000\u0000\u0000\u0000\u0000\u0000\u0000\u0000\u0000\u0000\u0000\u0000\u0000\u0000\u0000\u0000\u0000\u0000\u0000\u0000\u0000\u0000\u0000\u0000\u0000\u0000\u0000\u0000\u0000\u0000\u0000\u0000\u0000\u0000\u0000\u0000\u0000\u0000\u0000\u0000\u0000\u0000\u0000\u0000\u0000\u0000\u0000\u0000\u0000",
        "\u0000\u0000\u0000\u0000\u0000\u0000\u0000\u0000\u0000\u0000\u0000\u0000\u0000\u0000\u0000\u0000\u0000\u0000\u0000\u0000\u0000\u0000\u0000\u0000\u0000\u0000\u0000\u0000\u0000\u0000\u0000\u0000\u0000\u0000\u0000\u0000\u0000\u0000\u0000\u0000\u0000\u0000\u0000\u0000\u0000\u0000\u0000\u0000\u0000\u0000\u0000\u0000\u0000\u0000\u0000\u0000\u0000\u0000\u0000\u0000\u0000\u0000\u0000\u0000\u0000\u0000\u0000\u0000\u0000\u0000\u0000\u0000\u0000\u0000\u0000\u0000\u0000\u0000\u0000\u0000\u0000\u0000\u0000\u0000\u0000\u0000\u0000\u0000\u0000\u0000\u0000\u0000\u0000\u0000\u0000\u0000\u0000\u0000\u0000\u0000\u0000\u0000\u0000\u0000\u0000\u0000\u0000\u0000\u0000\u0000\u0000\u0000\u0000\u0000\u0000\u0000\u0000\u0000\u0000\u0000\u0000\u0000\u0000\u0000\u0000\u0000\u0000\u0000\u0000\u0000\u0000\u0000\u0000\u0000\u0000\u0000\u0000\u0000\u0000\u0000\u0000\u0000\u0000\u0000\u0000\u0000\u0000\u0000\u0000\u0000\u0000\u0000\u0000\u0000\u0000\u0000\u0000\u0000\u0000\u0000\u0000\u0000\u0000\u0000\u0000\u0000\u0000\u0000\u0000\u0000\u0000\u0000\u0000\u0000\u0000\u0000\u0000\u0000",
        "\u0000\u0000\u0000\u0000\u0000\u0000\u0000\u0000\u0000\u0000\u0000\u0000\u0000\u0000\u0000\u0000\u0000\u0000\u0000\u0000\u0000\u0000\u0000\u0000\u0000\u0000\u0000\u0000\u0000\u0000\u0000\u0000\u0000\u0000\u0000\u0000\u0000\u0000\u0000\u0000\u0000\u0000\u0000\u0000\u0000\u0000\u0000\u0000\u0000\u0000\u0000\u0000\u0000\u0000\u0000\u0000\u0000\u0000\u0000\u0000\u0000\u0000\u0000\u0000\u0000\u0000\u0000\u0000\u0000\u0000\u0000\u0000\u0000\u0000\u0000\u0000\u0000\u0000\u0000\u0000\u0000\u0000\u0000\u0000\u0000\u0000\u0000\u0000\u0000\u0000\u0000\u0000\u0000\u0000\u0000\u0000\u0000\u0000\u0000\u0000\u0000\u0000\u0000\u0000\u0000\u0000\u0000\u0000\u0000\u0000\u0000\u0000\u0000\u0000\u0000\u0000\u0000\u0000\u0000\u0000\u0000\u0000\u0000\u0000\u0000\u0000\u0000\u0000\u0000\u0000\u0000\u0000\u0000\u0000\u0000\u0000\u0000\u0000\u0000\u0000\u0000\u0000\u0000\u0000\u0000\u0000\u0000\u0000\u0000\u0000\u0000\u0000\u0000\u0000\u0000\u0000\u0000\u0000\u0000\u0000\u0000\u0000\u0000\u0000\u0000\u0000\u0000\u0000\u0000\u0000\u0000\u0000\u0000\u0000\u0000\u0000\u0000\u0000",
        "\u0000\u0000\u0000\u0000\u0000\u0000\u0000\u0000\u0000\u0000\u0000\u0000\u0000\u0000\u0000\u0000\u0000\u0000\u0000\u0000\u0000\u0000\u0000\u0000\u0000\u0000\u0000\u0000\u0000\u0000\u0000\u0000\u0000\u0000\u0000\u0000\u0000\u0000\u0000\u0000\u0000\u0000\u0000\u0000\u0000\u0000\u0000\u0000\u0000\u0000\u0000\u0000\u0000\u0000\u0000\u0000\u0000\u0000\u0000\u0000\u0000\u0000\u0000\u0000\u0000\u0000\u0000\u0000\u0000\u0000\u0000\u0000\u0000\u0000\u0000\u0000\u0000\u0000\u0000\u0000\u0000\u0000\u0000\u0000\u0000\u0000\u0000\u0000\u0000\u0000\u0000\u0000\u0000\u0000\u0000\u0000\u0000\u0000\u0000\u0000\u0000\u0000\u0000\u0000\u0000\u0000\u0000\u0000\u0000\u0000\u0000\u0000\u0000\u0000\u0000\u0000\u0000\u0000\u0000\u0000\u0000\u0000\u0000\u0000\u0000\u0000\u0000\u0000\u0000\u0000\u0000\u0000\u0000\u0000\u0000\u0000\u0000\u0000\u0000\u0000\u0000\u0000\u0000\u0000\u0000\u0000\u0000\u0000\u0000\u0000\u0000\u0000\u0000\u0000\u0000\u0000\u0000\u0000\u0000\u0000\u0000\u0000\u0000\u0000\u0000\u0000\u0000\u0000\u0000\u0000\u0000\u0000\u0000\u0000\u0000\u0000",
        "\u0000\u0000\u0000\u0000\u0000\u0000\u0000\u0000\u0000\u0000\u0000\u0000\u0000\u0000\u0000\u0000\u0000\u0000\u0000\u0000\u0000\u0000\u0000\u0000\u0000\u0000\u0000\u0000\u0000\u0000\u0000\u0000\u0000\u0000\u0000\u0000\u0000\u0000\u0000\u0000\u0000\u0000\u0000\u0000\u0000\u0000\u0000\u0000\u0000\u0000\u0000\u0000\u0000\u0000\u0000\u0000\u0000\u0000\u0000\u0000\u0000\u0000\u0000\u0000\u0000\u0000\u0000\u0000\u0000\u0000\u0000\u0000\u0000\u0000\u0000\u0000\u0000\u0000\u0000\u0000\u0000\u0000\u0000\u0000\u0000\u0000\u0000\u0000\u0000\u0000\u0000\u0000\u0000\u0000\u0000\u0000\u0000\u0000\u0000\u0000\u0000\u0000\u0000\u0000\u0000\u0000\u0000\u0000\u0000\u0000\u0000\u0000\u0000\u0000\u0000\u0000\u0000\u0000\u0000\u0000\u0000\u0000\u0000\u0000\u0000\u0000\u0000\u0000\u0000\u0000\u0000\u0000\u0000\u0000\u0000\u0000\u0000\u0000\u0000\u0000\u0000\u0000\u0000\u0000\u0000\u0000\u0000\u0000\u0000\u0000\u0000\u0000\u0000\u0000\u0000\u0000\u0000\u0000\u0000\u0000\u0000\u0000\u0000\u0000\u0000\u0000\u0000\u0000\u0000\u0000\u0000\u0000\u0000\u0000\u0000\u0000",
        "\u0000\u0000\u0000\u0000\u0000\u0000\u0000\u0000\u0000\u0000\u0000\u0000\u0000\u0000\u0000\u0000\u0000\u0000\u0000\u0000\u0000\u0000\u0000\u0000\u0000\u0000\u0000\u0000\u0000\u0000\u0000\u0000\u0000\u0000\u0000\u0000\u0000\u0000\u0000\u0000\u0000\u0000\u0000\u0000\u0000\u0000\u0000\u0000\u0000\u0000\u0000\u0000\u0000\u0000\u0000\u0000\u0000\u0000\u0000\u0000\u0000\u0000\u0000\u0000\u0000\u0000\u0000\u0000\u0000\u0000\u0000\u0000\u0000\u0000\u0000\u0000\u0000\u0000\u0000\u0000\u0000\u0000\u0000\u0000\u0000\u0000\u0000\u0000\u0000\u0000\u0000\u0000\u0000\u0000\u0000\u0000\u0000\u0000\u0000\u0000\u0000\u0000\u0000\u0000\u0000\u0000\u0000\u0000\u0000\u0000\u0000\u0000\u0000\u0000\u0000\u0000\u0000\u0000\u0000\u0000\u0000\u0000\u0000\u0000\u0000\u0000\u0000\u0000\u0000\u0000\u0000\u0000\u0000\u0000\u0000\u0000\u0000\u0000\u0000\u0000\u0000\u0000\u0000\u0000\u0000\u0000\u0000\u0000\u0000\u0000\u0000\u0000\u0000\u0000\u0000\u0000\u0000\u0000\u0000\u0000\u0000\u0000\u0000\u0000\u0000\u0000\u0000\u0000\u0000\u0000\u0000\u0000\u0000\u0000\u0000\u0000",
