{
  "AcquisitionMatrixPE": 110,
  "AcquisitionNumber": 1,
  "AcquisitionTime": "09:16:42.905000",
  "BandwidthPerPixelPhaseEncode": 26.35,
  "BaseResolution": 110,
  "CoilString": "C:HEA;HEP",
  "ConversionSoftware": "dcm2niix",
  "ConversionSoftwareVersion": "v1.0.20190410  GCC6.3.0",
  "DerivedVendorReportedEchoSpacing": 0.000690012,
  "DeviceSerialNumber": "35422",
  "DwellTime": 2.6e-06,
  "EchoTime": 0.03,
  "EffectiveEchoSpacing": 0.000345006,
  "FlipAngle": 85,
  "ImageComments": "Unaliased_MB4_PE4_LB",
  "ImageOrientationPatientDICOM": [0.99945, -0.000406346, -0.0331727, 2.07709e-10, 0.999925, -0.0122485],
  "ImageType": [
    "ORIGINAL",
    "PRIMARY",
    "FMRI",
    "NONE",
    "MB",
    "ND",
    "MOSAIC"
],
  "ImagingFrequency": 123.177,
  "InPlanePhaseEncodingDirectionDICOM": "ROW",
  "InstitutionAddress": "kwanakro_599_C6F879_Seoul_KR_ZIP",
  "InstitutionName": "SNUBIC",
  "InstitutionalDepartmentName": "Department",
  "MRAcquisitionType": "2D",
  "MagneticFieldStrength": 3,
  "Manufacturer": "Siemens",
  "ManufacturersModelName": "TrioTim",
  "Modality": "MR",
  "MultibandAccelerationFactor": 4,
  "ParallelReductionFactorInPlane": 2,
  "PartialFourier": 1,
  "PatientPosition": "HFS",
  "PercentPhaseFOV": 100,
  "PhaseEncodingDirection": "i-",
  "PhaseEncodingSteps": 110,
  "PhaseResolution": 1,
  "PixelBandwidth": 1748,
  "ProcedureStepDescription": "SNU_SAVED",
  "ProtocolName": "WMGNG1_MB4_LR_SBRef",
  "PulseSequenceDetails": "%CustomerSeq%_cmrr_mbep2d_bold",
  "ReceiveCoilName": "32Ch_Head",
  "ReconMatrixPE": 110,
  "RefLinesPE": 32,
  "RepetitionTime": 1.5,
  "SAR": 0.149129,
  "ScanOptions": "FS",
  "ScanningSequence": "EP",
  "SequenceName": "epfid2d1_110",
  "SequenceVariant": "SK_SS",
  "SeriesDescription": "WMGNG1_MB4_LR_SBRef",
  "SeriesNumber": 5,
  "ShimSetting": [-4141, -29771, -2025, 557, -44, 107, 30, 10],
  "SliceThickness": 2.3,
  "SliceTiming": [0, 0.66, 1.3175, 0.4725, 1.13, 0.2825, 0.9425, 0.095, 0.755, 1.4125, 0.565, 1.225, 0.3775, 1.035, 0.19, 0.8475, 0, 0.66, 1.3175, 0.4725, 1.13, 0.2825, 0.9425, 0.095, 0.755, 1.4125, 0.565, 1.225, 0.3775, 1.035, 0.19, 0.8475, 0, 0.66, 1.3175, 0.4725, 1.13, 0.2825, 0.9425, 0.095, 0.755, 1.4125, 0.565, 1.225, 0.3775, 1.035, 0.19, 0.8475, 0, 0.66, 1.3175, 0.4725, 1.13, 0.2825, 0.9425, 0.095, 0.755, 1.4125, 0.565, 1.225, 0.3775, 1.035, 0.19, 0.8475],
  "SoftwareVersions": "syngo_MR_B17",
  "SpacingBetweenSlices": 2.3,
  "StationName": "MRC35422",
  "TaskName": "wmgng",
  "TotalReadoutTime": 0.0376057,
  "TxRefAmp": 361.529,
  "dcmmeta_affine": [
    [-2.325991630554199, 4.833943245685646e-10, -0.07630284130573273, 129.45639038085938],
    [0.0009456768166273832, 2.3270981311798096, -0.028156010434031487, -111.7476806640625],
    [-0.07720182090997696, 0.028505565598607063, 2.2985615730285645, -37.95830154418945],
    [0.0, 0.0, 0.0, 1.0]
],
  "dcmmeta_reorient_transform": [
    [0.0, -1.0, 0.0, 109.0],
    [1.0, 0.0, 0.0, 0.0],
    [0.0, 0.0, 1.0, 0.0],
    [0.0, 0.0, 0.0, 1.0]
],
  "dcmmeta_shape": [110, 110, 64, 357],
  "dcmmeta_slice_dim": 2,
  "dcmmeta_version": 0.6,
  "global": {
    "const": {
      "AcquisitionMatrix": [0, 110, 110, 0],
      "AngioFlag": "N",
      "BitsAllocated": 16,
      "BitsStored": 12,
      "Columns": 880,
      "EchoNumbers": 1,
      "EchoTime": 30.0,
      "EchoTrainLength": 1,
      "FlipAngle": 85.0,
      "HighBit": 11,
      "ImageOrientationPatient": [0.99944955327537, -0.0004063455226, -0.0331726595404, 2.077085e-10, 0.99992498449025, -0.0122484853015],
      "ImagePositionPatient": [-1024.963158795, -1037.4746823726, 5.8461507477212],
      "ImageType": [
        "ORIGINAL",
        "PRIMARY",
        "FMRI",
        "NONE",
        "MB",
        "ND",
        "MOSAIC"
],
      "ImagedNucleus": "1H",
      "ImagingFrequency": 123.17726,
      "InPlanePhaseEncodingDirection": "ROW",
      "MRAcquisitionType": "2D",
      "MagneticFieldStrength": 3.0,
      "Manufacturer": "SIEMENS",
      "ManufacturerModelName": "TrioTim",
      "Modality": "MR",
      "NumberOfAverages": 1.0,
      "NumberOfPhaseEncodingSteps": 110,
      "PercentPhaseFieldOfView": 100.0,
      "PercentSampling": 100.0,
      "PerformedProcedureStepStartTime": "090623.843000",
      "PhotometricInterpretation": "MONOCHROME2",
      "PixelBandwidth": 1748.0,
      "PixelRepresentation": 0,
      "PixelSpacing": [2.3272726535797, 2.3272726535797],
      "ProtocolName": "WMGNG1_MB4_LR_SBRef",
      "ReferencedPerformedProcedureStepSequence": [
        {
          "ReferencedSOPClassUID": "1.2.840.10008.3.1.2.3.3",
          "ReferencedSOPInstanceUID": "1.3.12.2.1107.5.2.32.35422.30000020060900062387500000000"}
],
      "RepetitionTime": 1500.0,
      "Rows": 880,
      "SAR": 0.1491289713142,
      "SamplesPerPixel": 1,
      "ScanOptions": "FS",
      "ScanningSequence": "EP",
      "SequenceName": "epfid2d1_110",
      "SequenceVariant": [
        "SK",
        "SS"
],
      "SeriesDescription": "WMGNG1_MB4_LR_SBRef",
      "SeriesNumber": 5,
      "SeriesTime": "091808.500000",
      "SliceLocation": -40.861308835888,
      "SliceThickness": 2.2999999523163,
      "SmallestImagePixelValue": 0,
      "SoftwareVersions": "syngo MR B17",
      "SpacingBetweenSlices": 2.3000000487109,
      "SpecificCharacterSet": "ISO_IR 100",
      "StudyID": "1",
      "StudyTime": "090621.656000",
      "TransmitCoilName": "Body",
      "VariableFlipAngleFlag": "N",
      "WindowCenterWidthExplanation": "Algo1",
      "dBdt": 0.0},
    "slices": {}
  },
  "time": {
    "samples": {
      "AcquisitionNumber": [1, 2, 3, 4, 5, 6, 7, 8, 9, 10, 11, 12, 13, 14, 15, 16, 17, 18, 19, 20, 21, 22, 23, 24, 25, 26, 27, 28, 29, 30, 31, 32, 33, 34, 35, 36, 37, 38, 39, 40, 41, 42, 43, 44, 45, 46, 47, 48, 49, 50, 51, 52, 53, 54, 55, 56, 57, 58, 59, 60, 61, 62, 63, 64, 65, 66, 67, 68, 69, 70, 71, 72, 73, 74, 75, 76, 77, 78, 79, 80, 81, 82, 83, 84, 85, 86, 87, 88, 89, 90, 91, 92, 93, 94, 95, 96, 97, 98, 99, 100, 101, 102, 103, 104, 105, 106, 107, 108, 109, 110, 111, 112, 113, 114, 115, 116, 117, 118, 119, 120, 121, 122, 123, 124, 125, 126, 127, 128, 129, 130, 131, 132, 133, 134, 135, 136, 137, 138, 139, 140, 141, 142, 143, 144, 145, 146, 147, 148, 149, 150, 151, 152, 153, 154, 155, 156, 157, 158, 159, 160, 161, 162, 163, 164, 165, 166, 167, 168, 169, 170, 171, 172, 173, 174, 175, 176, 177, 178, 179, 180, 181, 182, 183, 184, 185, 186, 187, 188, 189, 190, 191, 192, 193, 194, 195, 196, 197, 198, 199, 200, 201, 202, 203, 204, 205, 206, 207, 208, 209, 210, 211, 212, 213, 214, 215, 216, 217, 218, 219, 220, 221, 222, 223, 224, 225, 226, 227, 228, 229, 230, 231, 232, 233, 234, 235, 236, 237, 238, 239, 240, 241, 242, 243, 244, 245, 246, 247, 248, 249, 250, 251, 252, 253, 254, 255, 256, 257, 258, 259, 260, 261, 262, 263, 264, 265, 266, 267, 268, 269, 270, 271, 272, 273, 274, 275, 276, 277, 278, 279, 280, 281, 282, 283, 284, 285, 286, 287, 288, 289, 290, 291, 292, 293, 294, 295, 296, 297, 298, 299, 300, 301, 302, 303, 304, 305, 306, 307, 308, 309, 310, 311, 312, 313, 314, 315, 316, 317, 318, 319, 320, 321, 322, 323, 324, 325, 326, 327, 328, 329, 330, 331, 332, 333, 334, 335, 336, 337, 338, 339, 340, 341, 342, 343, 344, 345, 346, 347, 348, 349, 350, 351, 352, 353, 354, 355, 356, 357],
      "AcquisitionTime": ["091642.905000", "091644.412500", "091645.917500", "091647.425000", "091648.930000", "091650.435000", "091651.942500", "091653.447500", "091654.955000", "091656.460000", "091657.967500", "091659.472500", "091700.977500", "091702.485000", "091703.990000", "091705.497500", "091707.002500", "091708.507500", "091710.015000", "091711.520000", "091713.027500", "091714.532500", "091716.037500", "091717.545000", "091719.050000", "091720.557500", "091722.062500", "091723.567500", "091725.075000", "091726.580000", "091728.087500", "091729.592500", "091731.100000", "091732.605000", "091734.110000", "091735.617500", "091737.122500", "091738.630000", "091740.135000", "091741.640000", "091743.147500", "091744.652500", "091746.160000", "091747.665000", "091749.170000", "091750.677500", "091752.182500", "091753.690000", "091755.195000", "091756.700000", "091758.207500", "091759.712500", "091801.220000", "091802.725000", "091804.232500", "091805.737500", "091807.242500", "091808.750000", "091810.255000", "091811.762500", "091813.267500", "091814.772500", "091816.280000", "091817.785000", "091819.292500", "091820.797500", "091822.302500", "091823.810000", "091825.315000", "091826.822500", "091828.327500", "091829.832500", "091831.340000", "091832.845000", "091834.352500", "091835.857500", "091837.365000", "091838.870000", "091840.375000", "091841.882500", "091843.387500", "091844.895000", "091846.400000", "091847.905000", "091849.412500", "091850.917500", "091852.425000", "091853.930000", "091855.435000", "091856.942500", "091858.447500", "091859.955000", "091901.460000", "091902.967500", "091904.472500", "091905.977500", "091907.485000", "091908.990000", "091910.497500", "091912.002500", "091913.507500", "091915.015000", "091916.520000", "091918.027500", "091919.532500", "091921.037500", "091922.545000", "091924.050000", "091925.557500", "091927.062500", "091928.567500", "091930.075000", "091931.580000", "091933.087500", "091934.592500", "091936.100000", "091937.605000", "091939.110000", "091940.617500", "091942.122500", "091943.630000", "091945.135000", "091946.640000", "091948.147500", "091949.652500", "091951.160000", "091952.665000", "091954.170000", "091955.677500", "091957.182500", "091958.690000", "092000.195000", "092001.700000", "092003.207500", "092004.712500", "092006.220000", "092007.725000", "092009.232500", "092010.737500", "092012.242500", "092013.750000", "092015.255000", "092016.762500", "092018.267500", "092019.772500", "092021.280000", "092022.785000", "092024.292500", "092025.797500", "092027.302500", "092028.810000", "092030.315000", "092031.822500", "092033.327500", "092034.832500", "092036.340000", "092037.845000", "092039.352500", "092040.857500", "092042.365000", "092043.870000", "092045.375000", "092046.882500", "092048.387500", "092049.895000", "092051.400000", "092052.905000", "092054.412500", "092055.917500", "092057.425000", "092058.930000", "092100.435000", "092101.942500", "092103.447500", "092104.955000", "092106.460000", "092107.967500", "092109.472500", "092110.977500", "092112.485000", "092113.990000", "092115.497500", "092117.002500", "092118.507500", "092120.015000", "092121.520000", "092123.027500", "092124.532500", "092126.037500", "092127.545000", "092129.050000", "092130.557500", "092132.062500", "092133.567500", "092135.075000", "092136.580000", "092138.087500", "092139.592500", "092141.100000", "092142.605000", "092144.110000", "092145.617500", "092147.122500", "092148.630000", "092150.135000", "092151.640000", "092153.147500", "092154.652500", "092156.160000", "092157.665000", "092159.170000", "092200.677500", "092202.182500", "092203.690000", "092205.195000", "092206.700000", "092208.207500", "092209.712500", "092211.220000", "092212.725000", "092214.232500", "092215.737500", "092217.242500", "092218.750000", "092220.255000", "092221.762500", "092223.267500", "092224.772500", "092226.280000", "092227.785000", "092229.292500", "092230.797500", "092232.302500", "092233.810000", "092235.315000", "092236.822500", "092238.327500", "092239.832500", "092241.340000", "092242.845000", "092244.352500", "092245.857500", "092247.365000", "092248.870000", "092250.375000", "092251.882500", "092253.387500", "092254.895000", "092256.400000", "092257.905000", "092259.412500", "092300.917500", "092302.425000", "092303.930000", "092305.435000", "092306.942500", "092308.447500", "092309.955000", "092311.460000", "092312.967500", "092314.472500", "092315.977500", "092317.485000", "092318.990000", "092320.497500", "092322.002500", "092323.507500", "092325.015000", "092326.520000", "092328.027500", "092329.532500", "092331.037500", "092332.545000", "092334.050000", "092335.557500", "092337.062500", "092338.567500", "092340.075000", "092341.580000", "092343.087500", "092344.592500", "092346.100000", "092347.605000", "092349.110000", "092350.617500", "092352.122500", "092353.630000", "092355.135000", "092356.640000", "092358.147500", "092359.652500", "092401.160000", "092402.665000", "092404.170000", "092405.677500", "092407.182500", "092408.690000", "092410.195000", "092411.700000", "092413.207500", "092414.712500", "092416.220000", "092417.725000", "092419.232500", "092420.737500", "092422.242500", "092423.750000", "092425.255000", "092426.762500", "092428.267500", "092429.772500", "092431.280000", "092432.785000", "092434.292500", "092435.797500", "092437.302500", "092438.810000", "092440.315000", "092441.822500", "092443.327500", "092444.832500", "092446.340000", "092447.845000", "092449.352500", "092450.857500", "092452.365000", "092453.870000", "092455.375000", "092456.882500", "092458.387500", "092459.895000", "092501.400000", "092502.905000", "092504.412500", "092505.917500", "092507.425000", "092508.930000", "092510.435000", "092511.942500", "092513.447500", "092514.955000", "092516.460000", "092517.967500", "092519.472500", "092520.977500", "092522.485000", "092523.990000", "092525.497500", "092527.002500", "092528.507500", "092530.015000", "092531.520000", "092533.027500", "092534.532500", "092536.037500", "092537.545000", "092539.050000"],
      "ContentTime": ["091808.531000", "091808.531000", "091808.562000", "091808.562000", "091808.562000", "091808.562000", "091808.562000", "091808.562000", "091808.562000", "091808.562000", "091808.578000", "091808.578000", "091808.578000", "091808.578000", "091808.578000", "091808.578000", "091808.578000", "091808.593000", "091808.593000", "091808.593000", "091808.593000", "091808.593000", "091808.593000", "091908.500000", "091908.500000", "091908.500000", "091908.515000", "091908.515000", "091908.515000", "091908.515000", "091908.531000", "091908.531000", "091908.531000", "091908.531000", "091908.531000", "091908.531000", "091908.531000", "091908.546000", "091908.546000", "091908.546000", "091908.546000", "091908.546000", "091908.546000", "091908.546000", "091908.546000", "091908.546000", "091908.562000", "091908.562000", "091908.562000", "092008.500000", "092008.500000", "092008.500000", "092008.500000", "092008.515000", "092008.515000", "092008.515000", "092008.515000", "092008.515000", "092008.515000", "092008.515000", "092008.515000", "092008.531000", "092008.531000", "092008.531000", "092008.531000", "092008.546000", "092008.546000", "092008.546000", "092008.546000", "092008.562000", "092008.562000", "092008.562000", "092008.562000", "092008.562000", "092008.562000", "092008.562000", "092108.500000", "092108.500000", "092108.500000", "092108.500000", "092108.515000", "092108.515000", "092108.515000", "092108.515000", "092108.531000", "092108.531000", "092108.531000", "092108.531000", "092108.531000", "092108.531000", "092108.531000", "092108.531000", "092108.531000", "092108.546000", "092108.546000", "092108.546000", "092108.546000", "092108.546000", "092108.546000", "092108.562000", "092108.562000", "092108.562000", "092208.500000", "092208.500000", "092208.500000", "092208.500000", "092208.515000", "092208.515000", "092208.515000", "092208.515000", "092208.515000", "092208.515000", "092208.515000", "092208.515000", "092208.515000", "092208.531000", "092208.531000", "092208.531000", "092208.531000", "092208.531000", "092208.546000", "092208.546000", "092208.546000", "092208.546000", "092208.546000", "092208.546000", "092208.546000", "092208.546000", "092308.500000", "092308.500000", "092308.515000", "092308.515000", "092308.515000", "092308.531000", "092308.531000", "092308.531000", "092308.531000", "092308.531000", "092308.531000", "092308.531000", "092308.531000", "092308.531000", "092308.546000", "092308.546000", "092308.546000", "092308.546000", "092308.546000", "092308.546000", "092308.546000", "092308.562000", "092308.562000", "092308.562000", "092308.562000", "092308.562000", "092308.562000", "092408.500000", "092408.500000", "092408.500000", "092408.500000", "092408.515000", "092408.515000", "092408.515000", "092408.515000", "092408.515000", "092408.515000", "092408.515000", "092408.515000", "092408.515000", "092408.531000", "092408.531000", "092408.531000", "092408.531000", "092408.531000", "092408.531000", "092408.546000", "092408.546000", "092408.546000", "092408.546000", "092408.546000", "092408.546000", "092408.546000", "092428.500000", "092428.500000", "092428.500000", "092428.500000", "092428.515000", "092428.515000", "092428.515000", "092428.515000", "092428.515000", "092528.500000", "092528.500000", "092528.515000", "092528.515000", "092528.515000", "092528.515000", "092528.515000", "092528.515000", "092528.515000", "092528.531000", "092528.531000", "092528.531000", "092528.531000", "092528.531000", "092528.531000", "092528.531000", "092528.531000", "092528.546000", "092528.546000", "092528.546000", "092528.546000", "092528.546000", "092528.546000", "092528.546000", "092528.546000", "092528.562000", "092628.500000", "092628.500000", "092628.500000", "092628.500000", "092628.515000", "092628.515000", "092628.515000", "092628.515000", "092628.515000", "092628.515000", "092628.515000", "092628.531000", "092628.531000", "092628.531000", "092628.531000", "092628.546000", "092628.546000", "092628.546000", "092628.546000", "092628.546000", "092628.546000", "092628.546000", "092628.546000", "092628.562000", "092628.562000", "092628.562000", "092728.500000", "092728.500000", "092728.500000", "092728.500000", "092728.515000", "092728.515000", "092728.515000", "092728.515000", "092728.515000", "092728.515000", "092728.515000", "092728.562000", "092728.562000", "092728.562000", "092728.562000", "092728.562000", "092728.562000", "092728.562000", "092728.562000", "092728.562000", "092728.578000", "092728.578000", "092728.578000", "092728.593000", "092728.593000", "092728.593000", "092828.500000", "092828.500000", "092828.500000", "092828.500000", "092828.515000", "092828.515000", "092828.515000", "092828.515000", "092828.515000", "092828.515000", "092828.515000", "092828.515000", "092828.515000", "092828.531000", "092828.531000", "092828.531000", "092828.531000", "092828.531000", "092828.546000", "092828.546000", "092828.546000", "092828.546000", "092828.546000", "092828.546000", "092828.546000", "092828.546000", "092828.562000", "092928.500000", "092928.500000", "092928.500000", "092928.500000", "092928.515000", "092928.515000", "092928.515000", "092928.515000", "092928.515000", "092928.531000", "092928.531000", "092928.531000", "092928.531000", "092928.531000", "092928.531000", "092928.546000", "092928.546000", "092928.546000", "092928.546000", "092928.546000", "092928.546000", "092928.562000", "092928.562000", "092928.562000", "092928.562000", "092928.562000", "093028.500000", "093028.500000", "093028.500000", "093028.515000", "093028.515000", "093028.515000", "093028.515000", "093028.515000", "093028.531000", "093028.531000", "093028.531000", "093028.531000", "093028.531000", "093028.531000", "093028.531000", "093028.546000", "093028.546000", "093028.546000", "093028.546000", "093028.546000", "093028.546000", "093028.562000", "093028.562000", "093028.562000", "093028.562000", "093028.562000", "093050.562000", "093050.562000", "093050.562000", "093050.562000", "093050.578000", "093050.578000", "093050.578000", "093050.578000", "093050.578000", "093050.578000"],
      "DataSetTrailingPadding": [
        "\u0000\u0000\u0000\u0000\u0000\u0000\u0000\u0000\u0000\u0000\u0000\u0000\u0000\u0000\u0000\u0000\u0000\u0000\u0000\u0000\u0000\u0000\u0000\u0000\u0000\u0000\u0000\u0000\u0000\u0000\u0000\u0000\u0000\u0000\u0000\u0000\u0000\u0000\u0000\u0000\u0000\u0000\u0000\u0000\u0000\u0000\u0000\u0000\u0000\u0000\u0000\u0000\u0000\u0000\u0000\u0000\u0000\u0000\u0000\u0000\u0000\u0000\u0000\u0000\u0000\u0000\u0000\u0000\u0000\u0000\u0000\u0000\u0000\u0000\u0000\u0000\u0000\u0000\u0000\u0000\u0000\u0000\u0000\u0000\u0000\u0000\u0000\u0000\u0000\u0000\u0000\u0000\u0000\u0000\u0000\u0000\u0000\u0000\u0000\u0000\u0000\u0000\u0000\u0000\u0000\u0000\u0000\u0000\u0000\u0000\u0000\u0000",
        "\u0000\u0000\u0000\u0000\u0000\u0000\u0000\u0000\u0000\u0000\u0000\u0000\u0000\u0000\u0000\u0000\u0000\u0000\u0000\u0000\u0000\u0000\u0000\u0000\u0000\u0000\u0000\u0000\u0000\u0000\u0000\u0000\u0000\u0000\u0000\u0000\u0000\u0000\u0000\u0000\u0000\u0000\u0000\u0000\u0000\u0000\u0000\u0000\u0000\u0000\u0000\u0000\u0000\u0000\u0000\u0000\u0000\u0000\u0000\u0000\u0000\u0000\u0000\u0000\u0000\u0000\u0000\u0000\u0000\u0000\u0000\u0000\u0000\u0000\u0000\u0000\u0000\u0000\u0000\u0000\u0000\u0000\u0000\u0000\u0000\u0000\u0000\u0000\u0000\u0000\u0000\u0000\u0000\u0000\u0000\u0000\u0000\u0000\u0000\u0000\u0000\u0000\u0000\u0000\u0000\u0000\u0000\u0000\u0000\u0000\u0000\u0000",
        "\u0000\u0000\u0000\u0000\u0000\u0000\u0000\u0000\u0000\u0000\u0000\u0000\u0000\u0000\u0000\u0000\u0000\u0000\u0000\u0000\u0000\u0000\u0000\u0000\u0000\u0000\u0000\u0000\u0000\u0000\u0000\u0000\u0000\u0000\u0000\u0000\u0000\u0000\u0000\u0000\u0000\u0000\u0000\u0000\u0000\u0000\u0000\u0000\u0000\u0000\u0000\u0000\u0000\u0000\u0000\u0000\u0000\u0000\u0000\u0000\u0000\u0000\u0000\u0000\u0000\u0000\u0000\u0000\u0000\u0000\u0000\u0000\u0000\u0000\u0000\u0000\u0000\u0000\u0000\u0000\u0000\u0000\u0000\u0000\u0000\u0000\u0000\u0000\u0000\u0000\u0000\u0000\u0000\u0000\u0000\u0000\u0000\u0000\u0000\u0000\u0000\u0000\u0000\u0000\u0000\u0000\u0000\u0000\u0000\u0000",
        "\u0000\u0000\u0000\u0000\u0000\u0000\u0000\u0000\u0000\u0000\u0000\u0000\u0000\u0000\u0000\u0000\u0000\u0000\u0000\u0000\u0000\u0000\u0000\u0000\u0000\u0000\u0000\u0000\u0000\u0000\u0000\u0000\u0000\u0000\u0000\u0000\u0000\u0000\u0000\u0000\u0000\u0000\u0000\u0000\u0000\u0000\u0000\u0000\u0000\u0000\u0000\u0000\u0000\u0000\u0000\u0000\u0000\u0000\u0000\u0000\u0000\u0000\u0000\u0000\u0000\u0000\u0000\u0000\u0000\u0000\u0000\u0000\u0000\u0000\u0000\u0000\u0000\u0000\u0000\u0000\u0000\u0000\u0000\u0000\u0000\u0000\u0000\u0000\u0000\u0000\u0000\u0000\u0000\u0000\u0000\u0000\u0000\u0000\u0000\u0000\u0000\u0000\u0000\u0000\u0000\u0000\u0000\u0000\u0000\u0000",
        "\u0000\u0000\u0000\u0000\u0000\u0000\u0000\u0000\u0000\u0000\u0000\u0000\u0000\u0000\u0000\u0000\u0000\u0000\u0000\u0000\u0000\u0000\u0000\u0000\u0000\u0000\u0000\u0000\u0000\u0000\u0000\u0000\u0000\u0000\u0000\u0000\u0000\u0000\u0000\u0000\u0000\u0000\u0000\u0000\u0000\u0000\u0000\u0000\u0000\u0000\u0000\u0000\u0000\u0000\u0000\u0000\u0000\u0000\u0000\u0000\u0000\u0000\u0000\u0000\u0000\u0000\u0000\u0000\u0000\u0000\u0000\u0000\u0000\u0000\u0000\u0000\u0000\u0000\u0000\u0000\u0000\u0000\u0000\u0000\u0000\u0000\u0000\u0000\u0000\u0000\u0000\u0000\u0000\u0000\u0000\u0000\u0000\u0000\u0000\u0000\u0000\u0000\u0000\u0000\u0000\u0000\u0000\u0000\u0000\u0000\u0000\u0000",
        "\u0000\u0000\u0000\u0000\u0000\u0000\u0000\u0000\u0000\u0000\u0000\u0000\u0000\u0000\u0000\u0000\u0000\u0000\u0000\u0000\u0000\u0000\u0000\u0000\u0000\u0000\u0000\u0000\u0000\u0000\u0000\u0000\u0000\u0000\u0000\u0000\u0000\u0000\u0000\u0000\u0000\u0000\u0000\u0000\u0000\u0000\u0000\u0000\u0000\u0000\u0000\u0000\u0000\u0000\u0000\u0000\u0000\u0000\u0000\u0000\u0000\u0000\u0000\u0000\u0000\u0000\u0000\u0000\u0000\u0000\u0000\u0000\u0000\u0000\u0000\u0000\u0000\u0000\u0000\u0000\u0000\u0000\u0000\u0000\u0000\u0000\u0000\u0000\u0000\u0000\u0000\u0000\u0000\u0000\u0000\u0000\u0000\u0000\u0000\u0000\u0000\u0000\u0000\u0000\u0000\u0000\u0000\u0000\u0000\u0000\u0000\u0000",
        "\u0000\u0000\u0000\u0000\u0000\u0000\u0000\u0000\u0000\u0000\u0000\u0000\u0000\u0000\u0000\u0000\u0000\u0000\u0000\u0000\u0000\u0000\u0000\u0000\u0000\u0000\u0000\u0000\u0000\u0000\u0000\u0000\u0000\u0000\u0000\u0000\u0000\u0000\u0000\u0000\u0000\u0000\u0000\u0000\u0000\u0000\u0000\u0000\u0000\u0000\u0000\u0000\u0000\u0000\u0000\u0000\u0000\u0000\u0000\u0000\u0000\u0000\u0000\u0000\u0000\u0000\u0000\u0000\u0000\u0000\u0000\u0000\u0000\u0000\u0000\u0000\u0000\u0000\u0000\u0000\u0000\u0000\u0000\u0000\u0000\u0000\u0000\u0000\u0000\u0000\u0000\u0000\u0000\u0000\u0000\u0000\u0000\u0000\u0000\u0000\u0000\u0000\u0000\u0000\u0000\u0000\u0000\u0000\u0000\u0000\u0000\u0000\u0000\u0000",
        "\u0000\u0000\u0000\u0000\u0000\u0000\u0000\u0000\u0000\u0000\u0000\u0000\u0000\u0000\u0000\u0000\u0000\u0000\u0000\u0000\u0000\u0000\u0000\u0000\u0000\u0000\u0000\u0000\u0000\u0000\u0000\u0000\u0000\u0000\u0000\u0000\u0000\u0000\u0000\u0000\u0000\u0000\u0000\u0000\u0000\u0000\u0000\u0000\u0000\u0000\u0000\u0000\u0000\u0000\u0000\u0000\u0000\u0000\u0000\u0000\u0000\u0000\u0000\u0000\u0000\u0000\u0000\u0000\u0000\u0000\u0000\u0000\u0000\u0000\u0000\u0000\u0000\u0000\u0000\u0000\u0000\u0000\u0000\u0000\u0000\u0000\u0000\u0000\u0000\u0000\u0000\u0000\u0000\u0000\u0000\u0000\u0000\u0000\u0000\u0000\u0000\u0000\u0000\u0000\u0000\u0000\u0000\u0000\u0000\u0000",
        "\u0000\u0000\u0000\u0000\u0000\u0000\u0000\u0000\u0000\u0000\u0000\u0000\u0000\u0000\u0000\u0000\u0000\u0000\u0000\u0000\u0000\u0000\u0000\u0000\u0000\u0000\u0000\u0000\u0000\u0000\u0000\u0000\u0000\u0000\u0000\u0000\u0000\u0000\u0000\u0000\u0000\u0000\u0000\u0000\u0000\u0000\u0000\u0000\u0000\u0000\u0000\u0000\u0000\u0000\u0000\u0000\u0000\u0000\u0000\u0000\u0000\u0000\u0000\u0000\u0000\u0000\u0000\u0000\u0000\u0000\u0000\u0000\u0000\u0000\u0000\u0000\u0000\u0000\u0000\u0000\u0000\u0000\u0000\u0000\u0000\u0000\u0000\u0000\u0000\u0000\u0000\u0000\u0000\u0000\u0000\u0000\u0000\u0000\u0000\u0000\u0000\u0000\u0000\u0000\u0000\u0000\u0000\u0000\u0000\u0000",
        "\u0000\u0000\u0000\u0000\u0000\u0000\u0000\u0000\u0000\u0000\u0000\u0000\u0000\u0000\u0000\u0000\u0000\u0000\u0000\u0000\u0000\u0000\u0000\u0000\u0000\u0000\u0000\u0000\u0000\u0000\u0000\u0000\u0000\u0000\u0000\u0000\u0000\u0000\u0000\u0000\u0000\u0000\u0000\u0000\u0000\u0000\u0000\u0000\u0000\u0000\u0000\u0000\u0000\u0000\u0000\u0000\u0000\u0000\u0000\u0000\u0000\u0000\u0000\u0000\u0000\u0000\u0000\u0000\u0000\u0000\u0000\u0000\u0000\u0000\u0000\u0000\u0000\u0000\u0000\u0000\u0000\u0000\u0000\u0000\u0000\u0000\u0000\u0000\u0000\u0000\u0000\u0000\u0000\u0000\u0000\u0000\u0000\u0000\u0000\u0000\u0000\u0000\u0000\u0000\u0000\u0000\u0000\u0000",
        "\u0000\u0000\u0000\u0000\u0000\u0000\u0000\u0000\u0000\u0000\u0000\u0000\u0000\u0000\u0000\u0000\u0000\u0000\u0000\u0000\u0000\u0000\u0000\u0000\u0000\u0000\u0000\u0000\u0000\u0000\u0000\u0000\u0000\u0000\u0000\u0000\u0000\u0000\u0000\u0000\u0000\u0000\u0000\u0000\u0000\u0000\u0000\u0000\u0000\u0000\u0000\u0000\u0000\u0000\u0000\u0000\u0000\u0000\u0000\u0000\u0000\u0000\u0000\u0000\u0000\u0000\u0000\u0000\u0000\u0000\u0000\u0000\u0000\u0000\u0000\u0000\u0000\u0000\u0000\u0000\u0000\u0000\u0000\u0000\u0000\u0000\u0000\u0000\u0000\u0000\u0000\u0000\u0000\u0000\u0000\u0000\u0000\u0000\u0000\u0000\u0000\u0000\u0000\u0000\u0000\u0000\u0000\u0000\u0000\u0000",
        "\u0000\u0000\u0000\u0000\u0000\u0000\u0000\u0000\u0000\u0000\u0000\u0000\u0000\u0000\u0000\u0000\u0000\u0000\u0000\u0000\u0000\u0000\u0000\u0000\u0000\u0000\u0000\u0000\u0000\u0000\u0000\u0000\u0000\u0000\u0000\u0000\u0000\u0000\u0000\u0000\u0000\u0000\u0000\u0000\u0000\u0000\u0000\u0000\u0000\u0000\u0000\u0000\u0000\u0000\u0000\u0000\u0000\u0000\u0000\u0000\u0000\u0000\u0000\u0000\u0000\u0000\u0000\u0000\u0000\u0000\u0000\u0000\u0000\u0000\u0000\u0000\u0000\u0000\u0000\u0000\u0000\u0000\u0000\u0000\u0000\u0000\u0000\u0000\u0000\u0000\u0000\u0000\u0000\u0000\u0000\u0000\u0000\u0000\u0000\u0000\u0000\u0000\u0000\u0000\u0000\u0000",
        "\u0000\u0000\u0000\u0000\u0000\u0000\u0000\u0000\u0000\u0000\u0000\u0000\u0000\u0000\u0000\u0000\u0000\u0000\u0000\u0000\u0000\u0000\u0000\u0000\u0000\u0000\u0000\u0000\u0000\u0000\u0000\u0000\u0000\u0000\u0000\u0000\u0000\u0000\u0000\u0000\u0000\u0000\u0000\u0000\u0000\u0000\u0000\u0000\u0000\u0000\u0000\u0000\u0000\u0000\u0000\u0000\u0000\u0000\u0000\u0000\u0000\u0000\u0000\u0000\u0000\u0000\u0000\u0000\u0000\u0000\u0000\u0000\u0000\u0000\u0000\u0000\u0000\u0000\u0000\u0000\u0000\u0000\u0000\u0000\u0000\u0000\u0000\u0000\u0000\u0000\u0000\u0000\u0000\u0000\u0000\u0000\u0000\u0000\u0000\u0000\u0000\u0000\u0000\u0000\u0000\u0000",
        "\u0000\u0000\u0000\u0000\u0000\u0000\u0000\u0000\u0000\u0000\u0000\u0000\u0000\u0000\u0000\u0000\u0000\u0000\u0000\u0000\u0000\u0000\u0000\u0000\u0000\u0000\u0000\u0000\u0000\u0000\u0000\u0000\u0000\u0000\u0000\u0000\u0000\u0000\u0000\u0000\u0000\u0000\u0000\u0000\u0000\u0000\u0000\u0000\u0000\u0000\u0000\u0000\u0000\u0000\u0000\u0000\u0000\u0000\u0000\u0000\u0000\u0000\u0000\u0000\u0000\u0000\u0000\u0000\u0000\u0000\u0000\u0000\u0000\u0000\u0000\u0000\u0000\u0000\u0000\u0000\u0000\u0000\u0000\u0000\u0000\u0000\u0000\u0000\u0000\u0000\u0000\u0000\u0000\u0000\u0000\u0000\u0000\u0000\u0000\u0000\u0000\u0000\u0000\u0000\u0000\u0000",
        "\u0000\u0000\u0000\u0000\u0000\u0000\u0000\u0000\u0000\u0000\u0000\u0000\u0000\u0000\u0000\u0000\u0000\u0000\u0000\u0000\u0000\u0000\u0000\u0000\u0000\u0000\u0000\u0000\u0000\u0000\u0000\u0000\u0000\u0000\u0000\u0000\u0000\u0000\u0000\u0000\u0000\u0000\u0000\u0000\u0000\u0000\u0000\u0000\u0000\u0000\u0000\u0000\u0000\u0000\u0000\u0000\u0000\u0000\u0000\u0000\u0000\u0000\u0000\u0000\u0000\u0000\u0000\u0000\u0000\u0000\u0000\u0000\u0000\u0000\u0000\u0000\u0000\u0000\u0000\u0000\u0000\u0000\u0000\u0000\u0000\u0000\u0000\u0000\u0000\u0000\u0000\u0000\u0000\u0000\u0000\u0000\u0000\u0000\u0000\u0000\u0000\u0000\u0000\u0000\u0000\u0000\u0000\u0000",
