{
  "AcquisitionMatrixPE": 110,
  "AcquisitionNumber": 1,
  "AcquisitionTime": "17:22:55.022500",
  "BandwidthPerPixelPhaseEncode": 26.35,
  "BaseResolution": 110,
  "CoilString": "C:HEA;HEP",
  "ConversionSoftware": "dcm2niix",
  "ConversionSoftwareVersion": "v1.0.20190410  GCC6.3.0",
  "DerivedVendorReportedEchoSpacing": 0.000690012,
  "DeviceSerialNumber": "35422",
  "DwellTime": 2.6e-06,
  "EchoTime": 0.03,
  "EffectiveEchoSpacing": 0.000345006,
  "FlipAngle": 85,
  "ImageComments": "Unaliased_MB4_PE4_LB",
  "ImageOrientationPatientDICOM": [0.999835, 0.00336068, 0.0178573, 2.35199e-11, 0.982748, -0.18495],
  "ImageType": [
    "ORIGINAL",
    "PRIMARY",
    "FMRI",
    "NONE",
    "MB",
    "ND",
    "MOSAIC"
],
  "ImagingFrequency": 123.2,
  "InPlanePhaseEncodingDirectionDICOM": "ROW",
  "InstitutionAddress": "kwanakro_599_C4F276_Seoul_KR_ZIP",
  "InstitutionName": "SNUBIC",
  "InstitutionalDepartmentName": "Department",
  "MRAcquisitionType": "2D",
  "MagneticFieldStrength": 3,
  "Manufacturer": "Siemens",
  "ManufacturersModelName": "TrioTim",
  "Modality": "MR",
  "MultibandAccelerationFactor": 4,
  "ParallelReductionFactorInPlane": 2,
  "PartialFourier": 1,
  "PatientPosition": "HFS",
  "PercentPhaseFOV": 100,
  "PhaseEncodingDirection": "i-",
  "PhaseEncodingSteps": 110,
  "PhaseResolution": 1,
  "PixelBandwidth": 1748,
  "ProcedureStepDescription": "SNU_SAVED",
  "ProtocolName": "WMGNG3_MB4_LR_SBRef",
  "PulseSequenceDetails": "%CustomerSeq%_cmrr_mbep2d_bold",
  "ReceiveCoilName": "32Ch_Head",
  "ReconMatrixPE": 110,
  "RefLinesPE": 32,
  "RepetitionTime": 1.5,
  "SAR": 0.120427,
  "ScanOptions": "FS",
  "ScanningSequence": "EP",
  "SequenceName": "epfid2d1_110",
  "SequenceVariant": "SK_SS",
  "SeriesDescription": "WMGNG3_MB4_LR_SBRef",
  "SeriesNumber": 3,
  "ShimSetting": [-4040, -30078, -1727, -91, 296, -599, -325, -769],
  "SliceThickness": 2.3,
  "SliceTiming": [0, 0.6575, 1.3175, 0.47, 1.1275, 0.28, 0.94, 0.0925, 0.7525, 1.41, 0.5625, 1.2225, 0.375, 1.035, 0.1875, 0.845, 0, 0.6575, 1.3175, 0.47, 1.1275, 0.28, 0.94, 0.0925, 0.7525, 1.41, 0.5625, 1.2225, 0.375, 1.035, 0.1875, 0.845, 0, 0.6575, 1.3175, 0.47, 1.1275, 0.28, 0.94, 0.0925, 0.7525, 1.41, 0.5625, 1.2225, 0.375, 1.035, 0.1875, 0.845, 0, 0.6575, 1.3175, 0.47, 1.1275, 0.28, 0.94, 0.0925, 0.7525, 1.41, 0.5625, 1.2225, 0.375, 1.035, 0.1875, 0.845],
  "SoftwareVersions": "syngo_MR_B17",
  "SpacingBetweenSlices": 2.3,
  "StationName": "MRC35422",
  "TaskName": "wmgng",
  "TotalReadoutTime": 0.0376057,
  "TxRefAmp": 372.397,
  "dcmmeta_affine": [
    [-2.3268883228302, 5.4737221699685534e-11, 0.04179278388619423, 131.98675537109375],
    [-0.007821214385330677, 2.2871224880218506, -0.42531391978263855, -98.51299285888672],
    [0.04155879095196724, 0.4304282069206238, 2.2599472999572754, -67.66779327392578],
    [0.0, 0.0, 0.0, 1.0]
],
  "dcmmeta_reorient_transform": [
    [0.0, -1.0, 0.0, 109.0],
    [1.0, 0.0, 0.0, 0.0],
    [0.0, 0.0, 1.0, 0.0],
    [0.0, 0.0, 0.0, 1.0]
],
  "dcmmeta_shape": [110, 110, 64, 357],
  "dcmmeta_slice_dim": 2,
  "dcmmeta_version": 0.6,
  "global": {
    "const": {
      "AcquisitionMatrix": [0, 110, 110, 0],
      "AngioFlag": "N",
      "BitsAllocated": 16,
      "BitsStored": 12,
      "Columns": 880,
      "EchoNumbers": 1,
      "EchoTime": 30.0,
      "EchoTrainLength": 1,
      "FlipAngle": 85.0,
      "HighBit": 11,
      "ImageOrientationPatient": [0.99983489782849, 0.00336067818102, 0.01785729336888, 2.35199e-11, 0.98274800157601, -0.1849496293545],
      "ImagePositionPatient": [-1027.83879702, -1034.336712777, 128.96361154215],
      "ImageType": [
        "ORIGINAL",
        "PRIMARY",
        "FMRI",
        "NONE",
        "MB",
        "ND",
        "MOSAIC"
],
      "ImagedNucleus": "1H",
      "ImagingFrequency": 123.200335,
      "InPlanePhaseEncodingDirection": "ROW",
      "MRAcquisitionType": "2D",
      "MagneticFieldStrength": 3.0,
      "Manufacturer": "SIEMENS",
      "ManufacturerModelName": "TrioTim",
      "Modality": "MR",
      "NumberOfAverages": 1.0,
      "NumberOfPhaseEncodingSteps": 110,
      "PercentPhaseFieldOfView": 100.0,
      "PercentSampling": 100.0,
      "PerformedProcedureStepStartTime": "170132.562000",
      "PhotometricInterpretation": "MONOCHROME2",
      "PixelBandwidth": 1748.0,
      "PixelRepresentation": 0,
      "PixelSpacing": [2.3272726535797, 2.3272726535797],
      "ProtocolName": "WMGNG3_MB4_LR_SBRef",
      "ReferencedPerformedProcedureStepSequence": [
        {
          "ReferencedSOPClassUID": "1.2.840.10008.3.1.2.3.3",
          "ReferencedSOPInstanceUID": "1.3.12.2.1107.5.2.32.35422.30000019110800322251500000005"}
],
      "RepetitionTime": 1500.0,
      "Rows": 880,
      "SAR": 0.12042722168796,
      "SamplesPerPixel": 1,
      "ScanOptions": "FS",
      "ScanningSequence": "EP",
      "SequenceName": "epfid2d1_110",
      "SequenceVariant": [
        "SK",
        "SS"
],
      "SeriesDescription": "WMGNG3_MB4_LR_SBRef",
      "SeriesNumber": 3,
      "SeriesTime": "172432.609000",
      "SliceLocation": -45.874172811731,
      "SliceThickness": 2.2999999523163,
      "SmallestImagePixelValue": 0,
      "SoftwareVersions": "syngo MR B17",
      "SpacingBetweenSlices": 2.3000000018546,
      "SpecificCharacterSet": "ISO_IR 100",
      "StudyID": "1",
      "StudyTime": "170132.515000",
      "TransmitCoilName": "Body",
      "VariableFlipAngleFlag": "N",
      "WindowCenterWidthExplanation": "Algo1",
      "dBdt": 0.0},
    "slices": {}
  },
  "time": {
    "samples": {
      "AcquisitionNumber": [1, 2, 3, 4, 5, 6, 7, 8, 9, 10, 11, 12, 13, 14, 15, 16, 17, 18, 19, 20, 21, 22, 23, 24, 25, 26, 27, 28, 29, 30, 31, 32, 33, 34, 35, 36, 37, 38, 39, 40, 41, 42, 43, 44, 45, 46, 47, 48, 49, 50, 51, 52, 53, 54, 55, 56, 57, 58, 59, 60, 61, 62, 63, 64, 65, 66, 67, 68, 69, 70, 71, 72, 73, 74, 75, 76, 77, 78, 79, 80, 81, 82, 83, 84, 85, 86, 87, 88, 89, 90, 91, 92, 93, 94, 95, 96, 97, 98, 99, 100, 101, 102, 103, 104, 105, 106, 107, 108, 109, 110, 111, 112, 113, 114, 115, 116, 117, 118, 119, 120, 121, 122, 123, 124, 125, 126, 127, 128, 129, 130, 131, 132, 133, 134, 135, 136, 137, 138, 139, 140, 141, 142, 143, 144, 145, 146, 147, 148, 149, 150, 151, 152, 153, 154, 155, 156, 157, 158, 159, 160, 161, 162, 163, 164, 165, 166, 167, 168, 169, 170, 171, 172, 173, 174, 175, 176, 177, 178, 179, 180, 181, 182, 183, 184, 185, 186, 187, 188, 189, 190, 191, 192, 193, 194, 195, 196, 197, 198, 199, 200, 201, 202, 203, 204, 205, 206, 207, 208, 209, 210, 211, 212, 213, 214, 215, 216, 217, 218, 219, 220, 221, 222, 223, 224, 225, 226, 227, 228, 229, 230, 231, 232, 233, 234, 235, 236, 237, 238, 239, 240, 241, 242, 243, 244, 245, 246, 247, 248, 249, 250, 251, 252, 253, 254, 255, 256, 257, 258, 259, 260, 261, 262, 263, 264, 265, 266, 267, 268, 269, 270, 271, 272, 273, 274, 275, 276, 277, 278, 279, 280, 281, 282, 283, 284, 285, 286, 287, 288, 289, 290, 291, 292, 293, 294, 295, 296, 297, 298, 299, 300, 301, 302, 303, 304, 305, 306, 307, 308, 309, 310, 311, 312, 313, 314, 315, 316, 317, 318, 319, 320, 321, 322, 323, 324, 325, 326, 327, 328, 329, 330, 331, 332, 333, 334, 335, 336, 337, 338, 339, 340, 341, 342, 343, 344, 345, 346, 347, 348, 349, 350, 351, 352, 353, 354, 355, 356, 357],
      "AcquisitionTime": ["172255.022500", "172256.527500", "172258.032500", "172259.540000", "172301.045000", "172302.552500", "172304.057500", "172305.562500", "172307.070000", "172308.575000", "172310.082500", "172311.587500", "172313.092500", "172314.600000", "172316.105000", "172317.612500", "172319.117500", "172320.625000", "172322.130000", "172323.635000", "172325.142500", "172326.647500", "172328.155000", "172329.660000", "172331.165000", "172332.672500", "172334.177500", "172335.685000", "172337.190000", "172338.695000", "172340.202500", "172341.707500", "172343.215000", "172344.720000", "172346.227500", "172347.732500", "172349.237500", "172350.745000", "172352.250000", "172353.757500", "172355.262500", "172356.767500", "172358.275000", "172359.780000", "172401.287500", "172402.792500", "172404.297500", "172405.805000", "172407.310000", "172408.817500", "172410.322500", "172411.827500", "172413.335000", "172414.840000", "172416.347500", "172417.852500", "172419.360000", "172420.865000", "172422.370000", "172423.877500", "172425.382500", "172426.890000", "172428.395000", "172429.900000", "172431.407500", "172432.912500", "172434.420000", "172435.925000", "172437.430000", "172438.937500", "172440.442500", "172441.950000", "172443.455000", "172444.960000", "172446.467500", "172447.972500", "172449.480000", "172450.985000", "172452.492500", "172453.997500", "172455.502500", "172457.010000", "172458.515000", "172500.022500", "172501.527500", "172503.032500", "172504.540000", "172506.045000", "172507.552500", "172509.057500", "172510.562500", "172512.070000", "172513.575000", "172515.082500", "172516.587500", "172518.092500", "172519.600000", "172521.105000", "172522.612500", "172524.117500", "172525.625000", "172527.130000", "172528.635000", "172530.142500", "172531.647500", "172533.155000", "172534.660000", "172536.165000", "172537.672500", "172539.177500", "172540.685000", "172542.190000", "172543.695000", "172545.202500", "172546.707500", "172548.215000", "172549.720000", "172551.227500", "172552.732500", "172554.237500", "172555.745000", "172557.250000", "172558.757500", "172600.262500", "172601.767500", "172603.275000", "172604.780000", "172606.287500", "172607.792500", "172609.297500", "172610.805000", "172612.310000", "172613.817500", "172615.322500", "172616.827500", "172618.335000", "172619.840000", "172621.347500", "172622.852500", "172624.360000", "172625.865000", "172627.370000", "172628.877500", "172630.382500", "172631.890000", "172633.395000", "172634.900000", "172636.407500", "172637.912500", "172639.420000", "172640.925000", "172642.430000", "172643.937500", "172645.442500", "172646.950000", "172648.455000", "172649.960000", "172651.467500", "172652.972500", "172654.480000", "172655.985000", "172657.492500", "172658.997500", "172700.502500", "172702.010000", "172703.515000", "172705.022500", "172706.527500", "172708.032500", "172709.540000", "172711.045000", "172712.552500", "172714.057500", "172715.562500", "172717.070000", "172718.575000", "172720.082500", "172721.587500", "172723.092500", "172724.600000", "172726.105000", "172727.612500", "172729.117500", "172730.625000", "172732.130000", "172733.635000", "172735.142500", "172736.647500", "172738.155000", "172739.660000", "172741.165000", "172742.672500", "172744.177500", "172745.685000", "172747.190000", "172748.695000", "172750.202500", "172751.707500", "172753.215000", "172754.720000", "172756.227500", "172757.732500", "172759.237500", "172800.745000", "172802.250000", "172803.757500", "172805.262500", "172806.767500", "172808.275000", "172809.780000", "172811.287500", "172812.792500", "172814.297500", "172815.805000", "172817.310000", "172818.817500", "172820.322500", "172821.827500", "172823.335000", "172824.840000", "172826.347500", "172827.852500", "172829.360000", "172830.865000", "172832.370000", "172833.877500", "172835.382500", "172836.890000", "172838.395000", "172839.900000", "172841.407500", "172842.912500", "172844.420000", "172845.925000", "172847.430000", "172848.937500", "172850.442500", "172851.950000", "172853.455000", "172854.960000", "172856.467500", "172857.972500", "172859.480000", "172900.985000", "172902.492500", "172903.997500", "172905.502500", "172907.010000", "172908.515000", "172910.022500", "172911.527500", "172913.032500", "172914.540000", "172916.045000", "172917.552500", "172919.057500", "172920.562500", "172922.070000", "172923.575000", "172925.082500", "172926.587500", "172928.092500", "172929.600000", "172931.105000", "172932.612500", "172934.117500", "172935.625000", "172937.130000", "172938.635000", "172940.142500", "172941.647500", "172943.155000", "172944.660000", "172946.165000", "172947.672500", "172949.177500", "172950.685000", "172952.190000", "172953.695000", "172955.202500", "172956.707500", "172958.215000", "172959.720000", "173001.227500", "173002.732500", "173004.237500", "173005.745000", "173007.250000", "173008.757500", "173010.262500", "173011.767500", "173013.275000", "173014.780000", "173016.287500", "173017.792500", "173019.297500", "173020.805000", "173022.310000", "173023.817500", "173025.322500", "173026.827500", "173028.335000", "173029.840000", "173031.347500", "173032.852500", "173034.360000", "173035.865000", "173037.370000", "173038.877500", "173040.382500", "173041.890000", "173043.395000", "173044.900000", "173046.407500", "173047.912500", "173049.420000", "173050.925000", "173052.430000", "173053.937500", "173055.442500", "173056.950000", "173058.455000", "173059.960000", "173101.467500", "173102.972500", "173104.480000", "173105.985000", "173107.492500", "173108.997500", "173110.502500", "173112.010000", "173113.515000", "173115.022500", "173116.527500", "173118.032500", "173119.540000", "173121.045000", "173122.552500", "173124.057500", "173125.562500", "173127.070000", "173128.575000", "173130.082500", "173131.587500", "173133.092500", "173134.600000", "173136.105000", "173137.612500", "173139.117500", "173140.625000", "173142.130000", "173143.635000", "173145.142500", "173146.647500", "173148.155000", "173149.660000", "173151.165000"],
      "ContentTime": ["172432.609000", "172432.609000", "172432.609000", "172432.625000", "172432.625000", "172432.625000", "172432.625000", "172432.625000", "172432.625000", "172432.625000", "172432.625000", "172432.625000", "172432.640000", "172432.640000", "172432.640000", "172432.640000", "172432.640000", "172432.640000", "172432.640000", "172432.656000", "172432.656000", "172432.656000", "172432.656000", "172432.656000", "172432.656000", "172432.656000", "172432.656000", "172432.656000", "172532.609000", "172532.609000", "172532.609000", "172532.609000", "172532.609000", "172532.609000", "172532.609000", "172532.625000", "172532.625000", "172532.625000", "172532.625000", "172532.625000", "172532.625000", "172532.625000", "172532.625000", "172532.625000", "172532.640000", "172532.640000", "172532.640000", "172532.640000", "172532.640000", "172532.656000", "172532.656000", "172532.656000", "172532.656000", "172532.656000", "172632.609000", "172632.609000", "172632.609000", "172632.609000", "172632.625000", "172632.625000", "172632.625000", "172632.625000", "172632.625000", "172632.625000", "172632.640000", "172632.640000", "172632.640000", "172632.640000", "172632.640000", "172632.640000", "172632.640000", "172632.640000", "172632.640000", "172632.656000", "172632.656000", "172632.656000", "172632.656000", "172632.656000", "172632.656000", "172632.656000", "172732.609000", "172732.609000", "172732.609000", "172732.609000", "172732.609000", "172732.609000", "172732.609000", "172732.625000", "172732.625000", "172732.625000", "172732.625000", "172732.625000", "172732.625000", "172732.640000", "172732.640000", "172732.640000", "172732.640000", "172732.640000", "172732.656000", "172732.656000", "172732.656000", "172732.656000", "172732.656000", "172732.656000", "172732.656000", "172732.656000", "172832.609000", "172832.609000", "172832.609000", "172832.609000", "172832.609000", "172832.609000", "172832.609000", "172832.625000", "172832.625000", "172832.625000", "172832.625000", "172832.625000", "172832.625000", "172832.625000", "172832.625000", "172832.625000", "172832.640000", "172832.640000", "172832.640000", "172832.640000", "172832.640000", "172832.640000", "172832.640000", "172832.640000", "172832.656000", "172832.656000", "172932.609000", "172932.609000", "172932.609000", "172932.609000", "172932.609000", "172932.609000", "172932.625000", "172932.625000", "172932.625000", "172932.625000", "172932.625000", "172932.625000", "172932.625000", "172932.625000", "172932.625000", "172932.640000", "172932.640000", "172932.640000", "172932.640000", "172932.640000", "172932.640000", "172932.640000", "172932.640000", "172932.640000", "172932.656000", "172932.656000", "172932.656000", "173032.609000", "173032.609000", "173032.609000", "173032.609000", "173032.609000", "173032.625000", "173032.625000", "173032.625000", "173032.625000", "173032.625000", "173032.625000", "173032.625000", "173032.640000", "173032.640000", "173032.640000", "173032.640000", "173032.640000", "173032.640000", "173032.640000", "173032.640000", "173032.640000", "173032.656000", "173032.656000", "173032.656000", "173032.656000", "173032.656000", "173112.609000", "173112.625000", "173112.625000", "173112.625000", "173112.640000", "173112.640000", "173112.640000", "173112.640000", "173112.640000", "173112.640000", "173112.640000", "173112.640000", "173112.656000", "173112.656000", "173112.656000", "173112.656000", "173112.656000", "173212.609000", "173212.609000", "173212.609000", "173212.609000", "173212.609000", "173212.609000", "173212.625000", "173212.625000", "173212.625000", "173212.625000", "173212.625000", "173212.625000", "173212.625000", "173212.640000", "173212.640000", "173212.640000", "173212.640000", "173212.640000", "173212.640000", "173212.640000", "173212.640000", "173212.640000", "173212.656000", "173212.656000", "173212.656000", "173212.671000", "173312.609000", "173312.609000", "173312.609000", "173312.625000", "173312.625000", "173312.625000", "173312.625000", "173312.625000", "173312.640000", "173312.640000", "173312.640000", "173312.640000", "173312.640000", "173312.640000", "173312.640000", "173312.640000", "173312.640000", "173312.656000", "173312.656000", "173312.656000", "173312.656000", "173312.656000", "173312.656000", "173312.656000", "173312.656000", "173312.656000", "173412.609000", "173412.609000", "173412.609000", "173412.609000", "173412.609000", "173412.609000", "173412.625000", "173412.625000", "173412.625000", "173412.625000", "173412.640000", "173412.640000", "173412.640000", "173412.640000", "173412.640000", "173412.640000", "173412.640000", "173412.640000", "173412.640000", "173412.656000", "173412.656000", "173412.656000", "173412.656000", "173412.656000", "173412.656000", "173412.671000", "173512.609000", "173512.609000", "173512.609000", "173512.609000", "173512.609000", "173512.609000", "173512.625000", "173512.625000", "173512.625000", "173512.625000", "173512.625000", "173512.625000", "173512.625000", "173512.625000", "173512.625000", "173512.640000", "173512.640000", "173512.640000", "173512.640000", "173512.640000", "173512.640000", "173512.640000", "173512.640000", "173512.640000", "173512.656000", "173512.656000", "173612.609000", "173612.609000", "173612.609000", "173612.609000", "173612.609000", "173612.609000", "173612.609000", "173612.625000", "173612.625000", "173612.625000", "173612.625000", "173612.625000", "173612.625000", "173612.625000", "173612.625000", "173612.625000", "173612.640000", "173612.640000", "173612.640000", "173612.640000", "173612.640000", "173612.640000", "173612.640000", "173612.640000", "173612.640000", "173612.656000", "173709.375000", "173709.406000", "173709.406000", "173709.406000", "173709.406000", "173709.421000", "173709.421000", "173709.421000", "173709.421000", "173709.421000", "173709.421000", "173709.421000", "173709.421000", "173709.421000", "173709.421000", "173709.437000", "173709.437000", "173709.437000", "173709.437000", "173709.437000", "173709.437000", "173709.437000", "173709.453000", "173709.453000", "173709.453000"],
      "DataSetTrailingPadding": [
        "\u0000\u0000\u0000\u0000\u0000\u0000\u0000\u0000\u0000\u0000\u0000\u0000\u0000\u0000\u0000\u0000\u0000\u0000\u0000\u0000\u0000\u0000\u0000\u0000\u0000\u0000\u0000\u0000\u0000\u0000\u0000\u0000\u0000\u0000\u0000\u0000\u0000\u0000\u0000\u0000\u0000\u0000\u0000\u0000\u0000\u0000\u0000\u0000\u0000\u0000\u0000\u0000\u0000\u0000\u0000\u0000\u0000\u0000\u0000\u0000\u0000\u0000\u0000\u0000\u0000\u0000\u0000\u0000\u0000\u0000\u0000\u0000\u0000\u0000\u0000\u0000\u0000\u0000\u0000\u0000\u0000\u0000\u0000\u0000\u0000\u0000\u0000\u0000\u0000\u0000\u0000\u0000\u0000\u0000\u0000\u0000\u0000\u0000\u0000\u0000\u0000\u0000\u0000\u0000\u0000\u0000\u0000\u0000\u0000\u0000\u0000\u0000\u0000\u0000\u0000\u0000\u0000\u0000\u0000\u0000\u0000\u0000\u0000\u0000\u0000\u0000\u0000\u0000\u0000\u0000\u0000\u0000\u0000\u0000\u0000\u0000\u0000\u0000\u0000\u0000\u0000\u0000\u0000\u0000\u0000\u0000\u0000\u0000\u0000\u0000\u0000\u0000\u0000\u0000\u0000\u0000\u0000\u0000\u0000\u0000\u0000\u0000\u0000\u0000\u0000\u0000\u0000\u0000\u0000\u0000\u0000\u0000\u0000\u0000\u0000\u0000\u0000\u0000\u0000\u0000\u0000\u0000\u0000\u0000\u0000\u0000\u0000\u0000\u0000\u0000\u0000\u0000\u0000\u0000\u0000\u0000\u0000\u0000\u0000\u0000\u0000\u0000\u0000\u0000\u0000\u0000\u0000\u0000\u0000\u0000\u0000\u0000\u0000\u0000\u0000\u0000\u0000\u0000\u0000\u0000\u0000\u0000\u0000\u0000\u0000\u0000\u0000\u0000\u0000\u0000\u0000\u0000\u0000\u0000\u0000\u0000\u0000\u0000\u0000\u0000\u0000\u0000\u0000\u0000\u0000\u0000\u0000\u0000\u0000\u0000\u0000\u0000\u0000\u0000\u0000\u0000\u0000\u0000\u0000\u0000\u0000\u0000\u0000\u0000\u0000\u0000\u0000\u0000\u0000\u0000\u0000\u0000\u0000\u0000\u0000\u0000\u0000\u0000\u0000\u0000\u0000\u0000\u0000\u0000\u0000\u0000\u0000\u0000\u0000\u0000\u0000\u0000\u0000\u0000",
        "\u0000\u0000\u0000\u0000\u0000\u0000\u0000\u0000\u0000\u0000\u0000\u0000\u0000\u0000\u0000\u0000\u0000\u0000\u0000\u0000\u0000\u0000\u0000\u0000\u0000\u0000\u0000\u0000\u0000\u0000\u0000\u0000\u0000\u0000\u0000\u0000\u0000\u0000\u0000\u0000\u0000\u0000\u0000\u0000\u0000\u0000\u0000\u0000\u0000\u0000\u0000\u0000\u0000\u0000\u0000\u0000\u0000\u0000\u0000\u0000\u0000\u0000\u0000\u0000\u0000\u0000\u0000\u0000\u0000\u0000\u0000\u0000\u0000\u0000\u0000\u0000\u0000\u0000\u0000\u0000\u0000\u0000\u0000\u0000\u0000\u0000\u0000\u0000\u0000\u0000\u0000\u0000\u0000\u0000\u0000\u0000\u0000\u0000\u0000\u0000\u0000\u0000\u0000\u0000\u0000\u0000\u0000\u0000\u0000\u0000\u0000\u0000\u0000\u0000\u0000\u0000\u0000\u0000\u0000\u0000\u0000\u0000\u0000\u0000\u0000\u0000\u0000\u0000\u0000\u0000\u0000\u0000\u0000\u0000\u0000\u0000\u0000\u0000\u0000\u0000\u0000\u0000\u0000\u0000\u0000\u0000\u0000\u0000\u0000\u0000\u0000\u0000\u0000\u0000\u0000\u0000\u0000\u0000\u0000\u0000\u0000\u0000\u0000\u0000\u0000\u0000\u0000\u0000\u0000\u0000\u0000\u0000\u0000\u0000\u0000\u0000\u0000\u0000\u0000\u0000\u0000\u0000\u0000\u0000\u0000\u0000\u0000\u0000\u0000\u0000\u0000\u0000\u0000\u0000\u0000\u0000\u0000\u0000\u0000\u0000\u0000\u0000\u0000\u0000\u0000\u0000\u0000\u0000\u0000\u0000\u0000\u0000\u0000\u0000\u0000\u0000\u0000\u0000\u0000\u0000\u0000\u0000\u0000\u0000\u0000\u0000\u0000\u0000\u0000\u0000\u0000\u0000\u0000\u0000\u0000\u0000\u0000\u0000\u0000\u0000\u0000\u0000\u0000\u0000\u0000\u0000\u0000\u0000\u0000\u0000\u0000\u0000\u0000\u0000\u0000\u0000\u0000\u0000\u0000\u0000\u0000\u0000\u0000\u0000\u0000\u0000\u0000\u0000\u0000\u0000\u0000\u0000\u0000\u0000\u0000\u0000\u0000\u0000\u0000\u0000\u0000\u0000\u0000\u0000\u0000\u0000\u0000\u0000\u0000\u0000\u0000\u0000",
        "\u0000\u0000\u0000\u0000\u0000\u0000\u0000\u0000\u0000\u0000\u0000\u0000\u0000\u0000\u0000\u0000\u0000\u0000\u0000\u0000\u0000\u0000\u0000\u0000\u0000\u0000\u0000\u0000\u0000\u0000\u0000\u0000\u0000\u0000\u0000\u0000\u0000\u0000\u0000\u0000\u0000\u0000\u0000\u0000\u0000\u0000\u0000\u0000\u0000\u0000\u0000\u0000\u0000\u0000\u0000\u0000\u0000\u0000\u0000\u0000\u0000\u0000\u0000\u0000\u0000\u0000\u0000\u0000\u0000\u0000\u0000\u0000\u0000\u0000\u0000\u0000\u0000\u0000\u0000\u0000\u0000\u0000\u0000\u0000\u0000\u0000\u0000\u0000\u0000\u0000\u0000\u0000\u0000\u0000\u0000\u0000\u0000\u0000\u0000\u0000\u0000\u0000\u0000\u0000\u0000\u0000\u0000\u0000\u0000\u0000\u0000\u0000\u0000\u0000\u0000\u0000\u0000\u0000\u0000\u0000\u0000\u0000\u0000\u0000\u0000\u0000\u0000\u0000\u0000\u0000\u0000\u0000\u0000\u0000\u0000\u0000\u0000\u0000\u0000\u0000\u0000\u0000\u0000\u0000\u0000\u0000\u0000\u0000\u0000\u0000\u0000\u0000\u0000\u0000\u0000\u0000\u0000\u0000\u0000\u0000\u0000\u0000\u0000\u0000\u0000\u0000\u0000\u0000\u0000\u0000\u0000\u0000\u0000\u0000\u0000\u0000\u0000\u0000\u0000\u0000\u0000\u0000\u0000\u0000\u0000\u0000\u0000\u0000\u0000\u0000\u0000\u0000\u0000\u0000\u0000\u0000\u0000\u0000\u0000\u0000\u0000\u0000\u0000\u0000\u0000\u0000\u0000\u0000\u0000\u0000\u0000\u0000\u0000\u0000\u0000\u0000\u0000\u0000\u0000\u0000\u0000\u0000\u0000\u0000\u0000\u0000\u0000\u0000\u0000\u0000\u0000\u0000\u0000\u0000\u0000\u0000\u0000\u0000\u0000\u0000\u0000\u0000\u0000\u0000\u0000\u0000\u0000\u0000\u0000\u0000\u0000\u0000\u0000\u0000\u0000\u0000\u0000\u0000\u0000\u0000\u0000\u0000\u0000\u0000\u0000\u0000\u0000\u0000\u0000\u0000\u0000\u0000\u0000\u0000\u0000\u0000\u0000\u0000\u0000\u0000\u0000\u0000\u0000\u0000\u0000\u0000\u0000\u0000\u0000\u0000\u0000\u0000",
        "\u0000\u0000\u0000\u0000\u0000\u0000\u0000\u0000\u0000\u0000\u0000\u0000\u0000\u0000\u0000\u0000\u0000\u0000\u0000\u0000\u0000\u0000\u0000\u0000\u0000\u0000\u0000\u0000\u0000\u0000\u0000\u0000\u0000\u0000\u0000\u0000\u0000\u0000\u0000\u0000\u0000\u0000\u0000\u0000\u0000\u0000\u0000\u0000\u0000\u0000\u0000\u0000\u0000\u0000\u0000\u0000\u0000\u0000\u0000\u0000\u0000\u0000\u0000\u0000\u0000\u0000\u0000\u0000\u0000\u0000\u0000\u0000\u0000\u0000\u0000\u0000\u0000\u0000\u0000\u0000\u0000\u0000\u0000\u0000\u0000\u0000\u0000\u0000\u0000\u0000\u0000\u0000\u0000\u0000\u0000\u0000\u0000\u0000\u0000\u0000\u0000\u0000\u0000\u0000\u0000\u0000\u0000\u0000\u0000\u0000\u0000\u0000\u0000\u0000\u0000\u0000\u0000\u0000\u0000\u0000\u0000\u0000\u0000\u0000\u0000\u0000\u0000\u0000\u0000\u0000\u0000\u0000\u0000\u0000\u0000\u0000\u0000\u0000\u0000\u0000\u0000\u0000\u0000\u0000\u0000\u0000\u0000\u0000\u0000\u0000\u0000\u0000\u0000\u0000\u0000\u0000\u0000\u0000\u0000\u0000\u0000\u0000\u0000\u0000\u0000\u0000\u0000\u0000\u0000\u0000\u0000\u0000\u0000\u0000\u0000\u0000\u0000\u0000\u0000\u0000\u0000\u0000\u0000\u0000\u0000\u0000\u0000\u0000\u0000\u0000\u0000\u0000\u0000\u0000\u0000\u0000\u0000\u0000\u0000\u0000\u0000\u0000\u0000\u0000\u0000\u0000\u0000\u0000\u0000\u0000\u0000\u0000\u0000\u0000\u0000\u0000\u0000\u0000\u0000\u0000\u0000\u0000\u0000\u0000\u0000\u0000\u0000\u0000\u0000\u0000\u0000\u0000\u0000\u0000\u0000\u0000\u0000\u0000\u0000\u0000\u0000\u0000\u0000\u0000\u0000\u0000\u0000\u0000\u0000\u0000\u0000\u0000\u0000\u0000\u0000\u0000\u0000\u0000\u0000\u0000\u0000\u0000\u0000\u0000\u0000\u0000\u0000\u0000\u0000\u0000\u0000\u0000\u0000\u0000\u0000\u0000\u0000\u0000\u0000\u0000\u0000\u0000\u0000\u0000\u0000\u0000\u0000\u0000\u0000\u0000\u0000\u0000",
        "\u0000\u0000\u0000\u0000\u0000\u0000\u0000\u0000\u0000\u0000\u0000\u0000\u0000\u0000\u0000\u0000\u0000\u0000\u0000\u0000\u0000\u0000\u0000\u0000\u0000\u0000\u0000\u0000\u0000\u0000\u0000\u0000\u0000\u0000\u0000\u0000\u0000\u0000\u0000\u0000\u0000\u0000\u0000\u0000\u0000\u0000\u0000\u0000\u0000\u0000\u0000\u0000\u0000\u0000\u0000\u0000\u0000\u0000\u0000\u0000\u0000\u0000\u0000\u0000\u0000\u0000\u0000\u0000\u0000\u0000\u0000\u0000\u0000\u0000\u0000\u0000\u0000\u0000\u0000\u0000\u0000\u0000\u0000\u0000\u0000\u0000\u0000\u0000\u0000\u0000\u0000\u0000\u0000\u0000\u0000\u0000\u0000\u0000\u0000\u0000\u0000\u0000\u0000\u0000\u0000\u0000\u0000\u0000\u0000\u0000\u0000\u0000\u0000\u0000\u0000\u0000\u0000\u0000\u0000\u0000\u0000\u0000\u0000\u0000\u0000\u0000\u0000\u0000\u0000\u0000\u0000\u0000\u0000\u0000\u0000\u0000\u0000\u0000\u0000\u0000\u0000\u0000\u0000\u0000\u0000\u0000\u0000\u0000\u0000\u0000\u0000\u0000\u0000\u0000\u0000\u0000\u0000\u0000\u0000\u0000\u0000\u0000\u0000\u0000\u0000\u0000\u0000\u0000\u0000\u0000\u0000\u0000\u0000\u0000\u0000\u0000\u0000\u0000\u0000\u0000\u0000\u0000\u0000\u0000\u0000\u0000\u0000\u0000\u0000\u0000\u0000\u0000\u0000\u0000\u0000\u0000\u0000\u0000\u0000\u0000\u0000\u0000\u0000\u0000\u0000\u0000\u0000\u0000\u0000\u0000\u0000\u0000\u0000\u0000\u0000\u0000\u0000\u0000\u0000\u0000\u0000\u0000\u0000\u0000\u0000\u0000\u0000\u0000\u0000\u0000\u0000\u0000\u0000\u0000\u0000\u0000\u0000\u0000\u0000\u0000\u0000\u0000\u0000\u0000\u0000\u0000\u0000\u0000\u0000\u0000\u0000\u0000\u0000\u0000\u0000\u0000\u0000\u0000\u0000\u0000\u0000\u0000\u0000\u0000\u0000\u0000\u0000\u0000\u0000\u0000\u0000\u0000\u0000\u0000\u0000\u0000\u0000\u0000\u0000\u0000\u0000\u0000\u0000\u0000\u0000\u0000\u0000\u0000\u0000\u0000\u0000\u0000\u0000\u0000",
