{
  "AcquisitionMatrixPE": 110,
  "AcquisitionNumber": 1,
  "AcquisitionTime": "16:31:19.852500",
  "BandwidthPerPixelPhaseEncode": 26.35,
  "BaseResolution": 110,
  "CoilString": "C:HEA;HEP",
  "ConversionSoftware": "dcm2niix",
  "ConversionSoftwareVersion": "v1.0.20190410  GCC6.3.0",
  "DerivedVendorReportedEchoSpacing": 0.000690012,
  "DeviceSerialNumber": "35422",
  "DwellTime": 2.6e-06,
  "EchoTime": 0.03,
  "EffectiveEchoSpacing": 0.000345006,
  "FlipAngle": 85,
  "ImageComments": "Unaliased_MB4_PE4_LB",
  "ImageOrientationPatientDICOM": [0.999994, -6.2713e-06, -0.00355808, 2.05092e-10, 0.999998, -0.00176249],
  "ImageType": [
    "ORIGINAL",
    "PRIMARY",
    "FMRI",
    "NONE",
    "MB",
    "ND",
    "MOSAIC"
],
  "ImagingFrequency": 123.177,
  "InPlanePhaseEncodingDirectionDICOM": "ROW",
  "InstitutionAddress": "kwanakro_599_C6F879_Seoul_KR_ZIP",
  "InstitutionName": "SNUBIC",
  "InstitutionalDepartmentName": "Department",
  "MRAcquisitionType": "2D",
  "MagneticFieldStrength": 3,
  "Manufacturer": "Siemens",
  "ManufacturersModelName": "TrioTim",
  "Modality": "MR",
  "MultibandAccelerationFactor": 4,
  "ParallelReductionFactorInPlane": 2,
  "PartialFourier": 1,
  "PatientPosition": "HFS",
  "PercentPhaseFOV": 100,
  "PhaseEncodingDirection": "i-",
  "PhaseEncodingSteps": 110,
  "PhaseResolution": 1,
  "PixelBandwidth": 1748,
  "ProcedureStepDescription": "SNU_SAVED",
  "ProtocolName": "WMGNG1_MB4_LR_SBRef",
  "PulseSequenceDetails": "%CustomerSeq%_cmrr_mbep2d_bold",
  "ReceiveCoilName": "32Ch_Head",
  "ReconMatrixPE": 110,
  "RefLinesPE": 32,
  "RepetitionTime": 1.5,
  "SAR": 0.152271,
  "ScanOptions": "FS",
  "ScanningSequence": "EP",
  "SequenceName": "epfid2d1_110",
  "SequenceVariant": "SK_SS",
  "SeriesDescription": "WMGNG1_MB4_LR_SBRef",
  "SeriesNumber": 15,
  "ShimSetting": [-4162, -29824, -1971, 561, -82, 142, 161, -96],
  "SliceThickness": 2.3,
  "SliceTiming": [0, 0.66, 1.3175, 0.47, 1.13, 0.2825, 0.94, 0.095, 0.7525, 1.4125, 0.565, 1.2225, 0.3775, 1.035, 0.1875, 0.8475, 0, 0.66, 1.3175, 0.47, 1.13, 0.2825, 0.94, 0.095, 0.7525, 1.4125, 0.565, 1.2225, 0.3775, 1.035, 0.1875, 0.8475, 0, 0.66, 1.3175, 0.47, 1.13, 0.2825, 0.94, 0.095, 0.7525, 1.4125, 0.565, 1.2225, 0.3775, 1.035, 0.1875, 0.8475, 0, 0.66, 1.3175, 0.47, 1.13, 0.2825, 0.94, 0.095, 0.7525, 1.4125, 0.565, 1.2225, 0.3775, 1.035, 0.1875, 0.8475],
  "SoftwareVersions": "syngo_MR_B17",
  "SpacingBetweenSlices": 2.3,
  "StationName": "MRC35422",
  "TaskName": "wmgng",
  "TotalReadoutTime": 0.0376057,
  "TxRefAmp": 353.546,
  "dcmmeta_affine": [
    [-2.3272578716278076, 4.773040851446808e-10, -0.008183597587049007, 129.1949462890625],
    [1.4595027096220292e-05, 2.3272690773010254, -0.0040537044405937195, -117.72020721435547],
    [-0.008280622772872448, 0.004101797938346863, 2.2999818325042725, -41.76268768310547],
    [0.0, 0.0, 0.0, 1.0]
],
  "dcmmeta_reorient_transform": [
    [0.0, -1.0, 0.0, 109.0],
    [1.0, 0.0, 0.0, 0.0],
    [0.0, 0.0, 1.0, 0.0],
    [0.0, 0.0, 0.0, 1.0]
],
  "dcmmeta_shape": [110, 110, 64, 357],
  "dcmmeta_slice_dim": 2,
  "dcmmeta_version": 0.6,
  "global": {
    "const": {
      "AcquisitionMatrix": [0, 110, 110, 0],
      "AngioFlag": "N",
      "BitsAllocated": 16,
      "BitsStored": 12,
      "Columns": 880,
      "EchoNumbers": 1,
      "EchoTime": 30.0,
      "EchoTrainLength": 1,
      "FlipAngle": 85.0,
      "HighBit": 11,
      "ImageOrientationPatient": [0.99999366999223, -6.27130101e-06, -0.0035580804001, 2.050916e-10, 0.99999844681079, -0.0017624914209],
      "ImagePositionPatient": [-1025.1892453922, -1031.945081251, -36.548358620667],
      "ImageType": [
        "ORIGINAL",
        "PRIMARY",
        "FMRI",
        "NONE",
        "MB",
        "ND",
        "MOSAIC"
],
      "ImagedNucleus": "1H",
      "ImagingFrequency": 123.177271,
      "InPlanePhaseEncodingDirection": "ROW",
      "MRAcquisitionType": "2D",
      "MagneticFieldStrength": 3.0,
      "Manufacturer": "SIEMENS",
      "ManufacturerModelName": "TrioTim",
      "Modality": "MR",
      "NumberOfAverages": 1.0,
      "NumberOfPhaseEncodingSteps": 110,
      "PercentPhaseFieldOfView": 100.0,
      "PercentSampling": 100.0,
      "PerformedProcedureStepStartTime": "154841.281000",
      "PhotometricInterpretation": "MONOCHROME2",
      "PixelBandwidth": 1748.0,
      "PixelRepresentation": 0,
      "PixelSpacing": [2.3272726535797, 2.3272726535797],
      "ProtocolName": "WMGNG1_MB4_LR_SBRef",
      "ReferencedPerformedProcedureStepSequence": [
        {
          "ReferencedSOPClassUID": "1.2.840.10008.3.1.2.3.3",
          "ReferencedSOPInstanceUID": "1.3.12.2.1107.5.2.32.35422.30000020042406484129600000000"}
],
      "RepetitionTime": 1500.0,
      "Rows": 880,
      "SAR": 0.15227091781349,
      "SamplesPerPixel": 1,
      "ScanOptions": "FS",
      "ScanningSequence": "EP",
      "SequenceName": "epfid2d1_110",
      "SequenceVariant": [
        "SK",
        "SS"
],
      "SeriesDescription": "WMGNG1_MB4_LR_SBRef",
      "SeriesNumber": 15,
      "SeriesTime": "163930.531000",
      "SliceLocation": -42.014564768374,
      "SliceThickness": 2.2999999523163,
      "SmallestImagePixelValue": 0,
      "SoftwareVersions": "syngo MR B17",
      "SpacingBetweenSlices": 2.2999999297681,
      "SpecificCharacterSet": "ISO_IR 100",
      "StudyID": "1",
      "StudyTime": "154841.140000",
      "TransmitCoilName": "Body",
      "VariableFlipAngleFlag": "N",
      "WindowCenterWidthExplanation": "Algo1",
      "dBdt": 0.0},
    "slices": {}
  },
  "time": {
    "samples": {
      "AcquisitionNumber": [1, 2, 3, 4, 5, 6, 7, 8, 9, 10, 11, 12, 13, 14, 15, 16, 17, 18, 19, 20, 21, 22, 23, 24, 25, 26, 27, 28, 29, 30, 31, 32, 33, 34, 35, 36, 37, 38, 39, 40, 41, 42, 43, 44, 45, 46, 47, 48, 49, 50, 51, 52, 53, 54, 55, 56, 57, 58, 59, 60, 61, 62, 63, 64, 65, 66, 67, 68, 69, 70, 71, 72, 73, 74, 75, 76, 77, 78, 79, 80, 81, 82, 83, 84, 85, 86, 87, 88, 89, 90, 91, 92, 93, 94, 95, 96, 97, 98, 99, 100, 101, 102, 103, 104, 105, 106, 107, 108, 109, 110, 111, 112, 113, 114, 115, 116, 117, 118, 119, 120, 121, 122, 123, 124, 125, 126, 127, 128, 129, 130, 131, 132, 133, 134, 135, 136, 137, 138, 139, 140, 141, 142, 143, 144, 145, 146, 147, 148, 149, 150, 151, 152, 153, 154, 155, 156, 157, 158, 159, 160, 161, 162, 163, 164, 165, 166, 167, 168, 169, 170, 171, 172, 173, 174, 175, 176, 177, 178, 179, 180, 181, 182, 183, 184, 185, 186, 187, 188, 189, 190, 191, 192, 193, 194, 195, 196, 197, 198, 199, 200, 201, 202, 203, 204, 205, 206, 207, 208, 209, 210, 211, 212, 213, 214, 215, 216, 217, 218, 219, 220, 221, 222, 223, 224, 225, 226, 227, 228, 229, 230, 231, 232, 233, 234, 235, 236, 237, 238, 239, 240, 241, 242, 243, 244, 245, 246, 247, 248, 249, 250, 251, 252, 253, 254, 255, 256, 257, 258, 259, 260, 261, 262, 263, 264, 265, 266, 267, 268, 269, 270, 271, 272, 273, 274, 275, 276, 277, 278, 279, 280, 281, 282, 283, 284, 285, 286, 287, 288, 289, 290, 291, 292, 293, 294, 295, 296, 297, 298, 299, 300, 301, 302, 303, 304, 305, 306, 307, 308, 309, 310, 311, 312, 313, 314, 315, 316, 317, 318, 319, 320, 321, 322, 323, 324, 325, 326, 327, 328, 329, 330, 331, 332, 333, 334, 335, 336, 337, 338, 339, 340, 341, 342, 343, 344, 345, 346, 347, 348, 349, 350, 351, 352, 353, 354, 355, 356, 357],
      "AcquisitionTime": ["163119.852500", "163121.357500", "163122.865000", "163124.370000", "163125.877500", "163127.382500", "163128.890000", "163130.395000", "163131.900000", "163133.407500", "163134.912500", "163136.420000", "163137.925000", "163139.430000", "163140.937500", "163142.442500", "163143.950000", "163145.455000", "163146.960000", "163148.467500", "163149.972500", "163151.480000", "163152.985000", "163154.490000", "163155.997500", "163157.502500", "163159.010000", "163200.515000", "163202.022500", "163203.527500", "163205.032500", "163206.540000", "163208.045000", "163209.552500", "163211.057500", "163212.562500", "163214.070000", "163215.575000", "163217.082500", "163218.587500", "163220.092500", "163221.600000", "163223.105000", "163224.612500", "163226.117500", "163227.625000", "163229.130000", "163230.635000", "163232.142500", "163233.647500", "163235.155000", "163236.660000", "163238.165000", "163239.672500", "163241.177500", "163242.685000", "163244.190000", "163245.695000", "163247.202500", "163248.707500", "163250.215000", "163251.720000", "163253.225000", "163254.732500", "163256.237500", "163257.745000", "163259.250000", "163300.757500", "163302.262500", "163303.767500", "163305.275000", "163306.780000", "163308.287500", "163309.792500", "163311.297500", "163312.805000", "163314.310000", "163315.817500", "163317.322500", "163318.827500", "163320.335000", "163321.840000", "163323.347500", "163324.852500", "163326.357500", "163327.865000", "163329.370000", "163330.877500", "163332.382500", "163333.890000", "163335.395000", "163336.900000", "163338.407500", "163339.912500", "163341.420000", "163342.925000", "163344.430000", "163345.937500", "163347.442500", "163348.950000", "163350.455000", "163351.960000", "163353.467500", "163354.972500", "163356.480000", "163357.985000", "163359.490000", "163400.997500", "163402.502500", "163404.010000", "163405.515000", "163407.022500", "163408.527500", "163410.032500", "163411.540000", "163413.045000", "163414.552500", "163416.057500", "163417.562500", "163419.070000", "163420.575000", "163422.082500", "163423.587500", "163425.092500", "163426.600000", "163428.105000", "163429.612500", "163431.117500", "163432.625000", "163434.130000", "163435.635000", "163437.142500", "163438.647500", "163440.155000", "163441.660000", "163443.165000", "163444.672500", "163446.177500", "163447.685000", "163449.190000", "163450.695000", "163452.202500", "163453.707500", "163455.215000", "163456.720000", "163458.225000", "163459.732500", "163501.237500", "163502.745000", "163504.250000", "163505.757500", "163507.262500", "163508.767500", "163510.275000", "163511.780000", "163513.287500", "163514.792500", "163516.297500", "163517.805000", "163519.310000", "163520.817500", "163522.322500", "163523.827500", "163525.335000", "163526.840000", "163528.347500", "163529.852500", "163531.357500", "163532.865000", "163534.370000", "163535.877500", "163537.382500", "163538.890000", "163540.395000", "163541.900000", "163543.407500", "163544.912500", "163546.420000", "163547.925000", "163549.430000", "163550.937500", "163552.442500", "163553.950000", "163555.455000", "163556.960000", "163558.467500", "163559.972500", "163601.480000", "163602.985000", "163604.490000", "163605.997500", "163607.502500", "163609.010000", "163610.515000", "163612.022500", "163613.527500", "163615.032500", "163616.540000", "163618.045000", "163619.552500", "163621.057500", "163622.562500", "163624.070000", "163625.575000", "163627.082500", "163628.587500", "163630.092500", "163631.600000", "163633.105000", "163634.612500", "163636.117500", "163637.625000", "163639.130000", "163640.635000", "163642.142500", "163643.647500", "163645.155000", "163646.660000", "163648.165000", "163649.672500", "163651.177500", "163652.685000", "163654.190000", "163655.695000", "163657.202500", "163658.707500", "163700.215000", "163701.720000", "163703.225000", "163704.732500", "163706.237500", "163707.745000", "163709.250000", "163710.757500", "163712.262500", "163713.767500", "163715.275000", "163716.780000", "163718.287500", "163719.792500", "163721.297500", "163722.805000", "163724.310000", "163725.817500", "163727.322500", "163728.827500", "163730.335000", "163731.840000", "163733.347500", "163734.852500", "163736.357500", "163737.865000", "163739.370000", "163740.877500", "163742.382500", "163743.890000", "163745.395000", "163746.900000", "163748.407500", "163749.912500", "163751.420000", "163752.925000", "163754.430000", "163755.937500", "163757.442500", "163758.950000", "163800.455000", "163801.960000", "163803.467500", "163804.972500", "163806.480000", "163807.985000", "163809.490000", "163810.997500", "163812.502500", "163814.010000", "163815.515000", "163817.022500", "163818.527500", "163820.032500", "163821.540000", "163823.045000", "163824.552500", "163826.057500", "163827.562500", "163829.070000", "163830.575000", "163832.082500", "163833.587500", "163835.092500", "163836.600000", "163838.105000", "163839.612500", "163841.117500", "163842.625000", "163844.130000", "163845.635000", "163847.142500", "163848.647500", "163850.155000", "163851.660000", "163853.165000", "163854.672500", "163856.177500", "163857.685000", "163859.190000", "163900.695000", "163902.202500", "163903.707500", "163905.215000", "163906.720000", "163908.225000", "163909.732500", "163911.237500", "163912.745000", "163914.250000", "163915.757500", "163917.262500", "163918.767500", "163920.275000", "163921.780000", "163923.287500", "163924.792500", "163926.297500", "163927.805000", "163929.310000", "163930.817500", "163932.322500", "163933.827500", "163935.335000", "163936.840000", "163938.347500", "163939.852500", "163941.357500", "163942.865000", "163944.370000", "163945.877500", "163947.382500", "163948.890000", "163950.395000", "163951.900000", "163953.407500", "163954.912500", "163956.420000", "163957.925000", "163959.430000", "164000.937500", "164002.442500", "164003.950000", "164005.455000", "164006.960000", "164008.467500", "164009.972500", "164011.480000", "164012.985000", "164014.490000", "164015.997500"],
      "ContentTime": ["163930.531000", "163930.531000", "163930.546000", "163930.546000", "163930.546000", "163930.546000", "163930.546000", "163930.562000", "163930.562000", "163930.562000", "163930.562000", "163930.562000", "163930.562000", "163930.562000", "163930.562000", "163930.562000", "163930.578000", "163930.578000", "163930.578000", "163930.578000", "163930.578000", "163930.578000", "163930.578000", "163930.578000", "163930.578000", "163930.593000", "163930.593000", "163930.593000", "163950.531000", "163950.531000", "163950.531000", "163950.531000", "163950.531000", "163950.531000", "163950.531000", "163950.546000", "164050.531000", "164050.531000", "164050.531000", "164050.531000", "164050.531000", "164050.531000", "164050.546000", "164050.546000", "164050.546000", "164050.546000", "164050.546000", "164050.546000", "164050.546000", "164050.546000", "164050.562000", "164050.562000", "164050.562000", "164050.562000", "164050.562000", "164050.562000", "164050.562000", "164050.562000", "164050.562000", "164050.578000", "164050.578000", "164050.578000", "164050.578000", "164150.531000", "164150.531000", "164150.531000", "164150.531000", "164150.531000", "164150.531000", "164150.531000", "164150.546000", "164150.546000", "164150.546000", "164150.546000", "164150.546000", "164150.546000", "164150.546000", "164150.546000", "164150.546000", "164150.562000", "164150.562000", "164150.562000", "164150.562000", "164150.562000", "164150.562000", "164150.562000", "164150.562000", "164150.562000", "164150.578000", "164250.531000", "164250.531000", "164250.531000", "164250.531000", "164250.531000", "164250.531000", "164250.531000", "164250.531000", "164250.546000", "164250.546000", "164250.546000", "164250.546000", "164250.546000", "164250.546000", "164250.546000", "164250.546000", "164250.546000", "164250.562000", "164250.562000", "164250.562000", "164250.562000", "164250.562000", "164250.562000", "164250.578000", "164250.578000", "164250.578000", "164350.531000", "164350.531000", "164350.531000", "164350.531000", "164350.531000", "164350.531000", "164350.531000", "164350.531000", "164350.546000", "164350.546000", "164350.546000", "164350.546000", "164350.546000", "164350.546000", "164350.546000", "164350.546000", "164350.546000", "164350.562000", "164350.562000", "164350.562000", "164350.562000", "164350.578000", "164350.578000", "164350.578000", "164350.578000", "164450.531000", "164450.531000", "164450.531000", "164450.531000", "164450.531000", "164450.531000", "164450.531000", "164450.546000", "164450.546000", "164450.546000", "164450.546000", "164450.546000", "164450.546000", "164450.546000", "164450.546000", "164450.546000", "164450.562000", "164450.562000", "164450.562000", "164450.562000", "164450.562000", "164450.562000", "164450.562000", "164450.578000", "164450.578000", "164450.578000", "164550.531000", "164550.531000", "164550.531000", "164550.546000", "164550.546000", "164550.546000", "164550.562000", "164550.562000", "164550.562000", "164550.562000", "164550.562000", "164550.562000", "164550.562000", "164550.562000", "164550.562000", "164550.578000", "164550.578000", "164550.578000", "164550.578000", "164550.578000", "164550.578000", "164550.578000", "164550.593000", "164550.593000", "164550.593000", "164550.593000", "164650.531000", "164650.531000", "164650.531000", "164650.531000", "164650.531000", "164650.531000", "164650.531000", "164650.531000", "164650.546000", "164650.546000", "164650.546000", "164650.546000", "164650.546000", "164650.546000", "164650.546000", "164650.546000", "164650.562000", "164650.562000", "164650.562000", "164650.562000", "164650.562000", "164650.578000", "164650.578000", "164650.578000", "164650.578000", "164650.578000", "164750.531000", "164750.531000", "164750.531000", "164750.531000", "164750.531000", "164750.531000", "164750.531000", "164750.546000", "164750.546000", "164750.546000", "164750.546000", "164750.546000", "164750.546000", "164750.562000", "164750.562000", "164750.562000", "164750.562000", "164750.562000", "164750.562000", "164750.562000", "164750.578000", "164750.578000", "164750.578000", "164750.578000", "164750.578000", "164750.578000", "164850.531000", "164850.531000", "164850.531000", "164850.531000", "164850.531000", "164850.546000", "164850.546000", "164850.546000", "164850.546000", "164850.546000", "164850.562000", "164850.562000", "164850.562000", "164850.562000", "164850.562000", "164850.562000", "164850.562000", "164850.562000", "164850.578000", "164850.578000", "164850.578000", "164850.593000", "164850.593000", "164850.593000", "164850.593000", "164850.593000", "164950.531000", "164950.531000", "164950.531000", "164950.531000", "164950.531000", "164950.531000", "164950.531000", "164950.546000", "164950.546000", "164950.546000", "164950.546000", "164950.546000", "164950.546000", "164950.562000", "164950.562000", "164950.562000", "164950.562000", "164950.562000", "164950.562000", "164950.562000", "164950.578000", "164950.578000", "164950.578000", "164950.578000", "164950.578000", "164950.578000", "165050.531000", "165050.531000", "165050.531000", "165050.531000", "165050.546000", "165050.546000", "165050.546000", "165050.546000", "165050.546000", "165050.546000", "165050.546000", "165050.562000", "165050.562000", "165050.562000", "165050.562000", "165050.562000", "165050.562000", "165050.562000", "165050.578000", "165050.578000", "165050.578000", "165050.578000", "165050.578000", "165050.593000", "165050.593000", "165050.593000", "165150.531000", "165150.531000", "165150.531000", "165150.531000", "165150.531000", "165150.546000", "165150.546000", "165150.546000", "165150.546000", "165150.546000", "165150.546000", "165150.562000", "165150.562000", "165150.562000", "165150.562000", "165150.562000", "165150.562000", "165150.562000", "165150.562000", "165150.562000", "165150.578000", "165150.578000", "165150.578000", "165150.578000", "165150.578000", "165150.578000", "165210.562000", "165210.562000", "165210.562000", "165210.562000", "165210.562000", "165210.562000", "165210.578000", "165210.578000", "165210.578000"],
      "DataSetTrailingPadding": [
        "\u0000\u0000\u0000\u0000\u0000\u0000\u0000\u0000\u0000\u0000\u0000\u0000\u0000\u0000\u0000\u0000\u0000\u0000\u0000\u0000\u0000\u0000\u0000\u0000\u0000\u0000\u0000\u0000\u0000\u0000\u0000\u0000\u0000\u0000\u0000\u0000\u0000\u0000\u0000\u0000\u0000\u0000\u0000\u0000\u0000\u0000\u0000\u0000\u0000\u0000\u0000\u0000\u0000\u0000\u0000\u0000\u0000\u0000\u0000\u0000\u0000\u0000\u0000\u0000\u0000\u0000\u0000\u0000\u0000\u0000\u0000\u0000\u0000\u0000\u0000\u0000\u0000\u0000\u0000\u0000\u0000\u0000\u0000\u0000\u0000\u0000\u0000\u0000\u0000\u0000\u0000\u0000\u0000\u0000\u0000\u0000\u0000\u0000\u0000\u0000\u0000\u0000\u0000\u0000\u0000\u0000\u0000\u0000\u0000\u0000\u0000\u0000\u0000\u0000\u0000\u0000\u0000\u0000\u0000\u0000\u0000\u0000\u0000\u0000\u0000\u0000\u0000\u0000\u0000\u0000\u0000\u0000\u0000\u0000\u0000\u0000\u0000\u0000\u0000\u0000\u0000\u0000\u0000\u0000\u0000\u0000\u0000\u0000\u0000\u0000\u0000\u0000\u0000\u0000\u0000\u0000\u0000\u0000\u0000\u0000\u0000\u0000\u0000\u0000\u0000\u0000\u0000\u0000\u0000\u0000\u0000\u0000\u0000\u0000\u0000\u0000\u0000\u0000\u0000\u0000\u0000\u0000\u0000\u0000\u0000\u0000\u0000\u0000\u0000\u0000\u0000\u0000\u0000\u0000\u0000\u0000\u0000\u0000\u0000\u0000\u0000\u0000\u0000\u0000\u0000\u0000\u0000\u0000\u0000\u0000\u0000\u0000\u0000\u0000\u0000\u0000\u0000\u0000\u0000\u0000\u0000\u0000\u0000\u0000\u0000\u0000\u0000\u0000\u0000\u0000\u0000\u0000\u0000\u0000\u0000\u0000\u0000\u0000\u0000\u0000\u0000\u0000\u0000\u0000\u0000\u0000\u0000\u0000\u0000\u0000\u0000\u0000\u0000\u0000\u0000\u0000\u0000\u0000\u0000\u0000\u0000\u0000\u0000\u0000\u0000\u0000\u0000\u0000\u0000\u0000\u0000\u0000\u0000\u0000\u0000\u0000\u0000\u0000\u0000\u0000\u0000\u0000\u0000\u0000\u0000\u0000\u0000\u0000\u0000\u0000\u0000\u0000\u0000\u0000\u0000\u0000\u0000\u0000\u0000\u0000\u0000\u0000\u0000\u0000\u0000\u0000\u0000\u0000\u0000\u0000\u0000\u0000\u0000\u0000\u0000\u0000\u0000\u0000\u0000\u0000\u0000\u0000\u0000\u0000\u0000\u0000\u0000\u0000\u0000\u0000\u0000\u0000\u0000\u0000\u0000\u0000\u0000\u0000\u0000\u0000\u0000\u0000\u0000\u0000\u0000\u0000\u0000\u0000\u0000\u0000\u0000\u0000\u0000\u0000\u0000\u0000\u0000\u0000\u0000\u0000\u0000\u0000\u0000\u0000\u0000\u0000\u0000\u0000\u0000\u0000\u0000\u0000\u0000\u0000\u0000\u0000",
        "\u0000\u0000\u0000\u0000\u0000\u0000\u0000\u0000\u0000\u0000\u0000\u0000\u0000\u0000\u0000\u0000\u0000\u0000\u0000\u0000\u0000\u0000\u0000\u0000\u0000\u0000\u0000\u0000\u0000\u0000\u0000\u0000\u0000\u0000\u0000\u0000\u0000\u0000\u0000\u0000\u0000\u0000\u0000\u0000\u0000\u0000\u0000\u0000\u0000\u0000\u0000\u0000\u0000\u0000\u0000\u0000\u0000\u0000\u0000\u0000\u0000\u0000\u0000\u0000\u0000\u0000\u0000\u0000\u0000\u0000\u0000\u0000\u0000\u0000\u0000\u0000\u0000\u0000\u0000\u0000\u0000\u0000\u0000\u0000\u0000\u0000\u0000\u0000\u0000\u0000\u0000\u0000\u0000\u0000\u0000\u0000\u0000\u0000\u0000\u0000\u0000\u0000\u0000\u0000\u0000\u0000\u0000\u0000\u0000\u0000\u0000\u0000\u0000\u0000\u0000\u0000\u0000\u0000\u0000\u0000\u0000\u0000\u0000\u0000\u0000\u0000\u0000\u0000\u0000\u0000\u0000\u0000\u0000\u0000\u0000\u0000\u0000\u0000\u0000\u0000\u0000\u0000\u0000\u0000\u0000\u0000\u0000\u0000\u0000\u0000\u0000\u0000\u0000\u0000\u0000\u0000\u0000\u0000\u0000\u0000\u0000\u0000\u0000\u0000\u0000\u0000\u0000\u0000\u0000\u0000\u0000\u0000\u0000\u0000\u0000\u0000\u0000\u0000\u0000\u0000\u0000\u0000\u0000\u0000\u0000\u0000\u0000\u0000\u0000\u0000\u0000\u0000\u0000\u0000\u0000\u0000\u0000\u0000\u0000\u0000\u0000\u0000\u0000\u0000\u0000\u0000\u0000\u0000\u0000\u0000\u0000\u0000\u0000\u0000\u0000\u0000\u0000\u0000\u0000\u0000\u0000\u0000\u0000\u0000\u0000\u0000\u0000\u0000\u0000\u0000\u0000\u0000\u0000\u0000\u0000\u0000\u0000\u0000\u0000\u0000\u0000\u0000\u0000\u0000\u0000\u0000\u0000\u0000\u0000\u0000\u0000\u0000\u0000\u0000\u0000\u0000\u0000\u0000\u0000\u0000\u0000\u0000\u0000\u0000\u0000\u0000\u0000\u0000\u0000\u0000\u0000\u0000\u0000\u0000\u0000\u0000\u0000\u0000\u0000\u0000\u0000\u0000\u0000\u0000\u0000\u0000\u0000\u0000\u0000\u0000\u0000\u0000\u0000\u0000\u0000\u0000\u0000\u0000\u0000\u0000\u0000\u0000\u0000\u0000\u0000\u0000\u0000\u0000\u0000\u0000\u0000\u0000\u0000\u0000\u0000\u0000\u0000\u0000\u0000\u0000\u0000\u0000\u0000\u0000\u0000\u0000\u0000\u0000\u0000\u0000\u0000\u0000\u0000\u0000\u0000\u0000\u0000\u0000\u0000\u0000\u0000\u0000\u0000\u0000\u0000\u0000\u0000\u0000\u0000\u0000\u0000\u0000\u0000\u0000\u0000\u0000\u0000\u0000\u0000\u0000\u0000\u0000\u0000\u0000\u0000\u0000\u0000\u0000\u0000\u0000\u0000\u0000\u0000\u0000\u0000\u0000",
        "\u0000\u0000\u0000\u0000\u0000\u0000\u0000\u0000\u0000\u0000\u0000\u0000\u0000\u0000\u0000\u0000\u0000\u0000\u0000\u0000\u0000\u0000\u0000\u0000\u0000\u0000\u0000\u0000\u0000\u0000\u0000\u0000\u0000\u0000\u0000\u0000\u0000\u0000\u0000\u0000\u0000\u0000\u0000\u0000\u0000\u0000\u0000\u0000\u0000\u0000\u0000\u0000\u0000\u0000\u0000\u0000\u0000\u0000\u0000\u0000\u0000\u0000\u0000\u0000\u0000\u0000\u0000\u0000\u0000\u0000\u0000\u0000\u0000\u0000\u0000\u0000\u0000\u0000\u0000\u0000\u0000\u0000\u0000\u0000\u0000\u0000\u0000\u0000\u0000\u0000\u0000\u0000\u0000\u0000\u0000\u0000\u0000\u0000\u0000\u0000\u0000\u0000\u0000\u0000\u0000\u0000\u0000\u0000\u0000\u0000\u0000\u0000\u0000\u0000\u0000\u0000\u0000\u0000\u0000\u0000\u0000\u0000\u0000\u0000\u0000\u0000\u0000\u0000\u0000\u0000\u0000\u0000\u0000\u0000\u0000\u0000\u0000\u0000\u0000\u0000\u0000\u0000\u0000\u0000\u0000\u0000\u0000\u0000\u0000\u0000\u0000\u0000\u0000\u0000\u0000\u0000\u0000\u0000\u0000\u0000\u0000\u0000\u0000\u0000\u0000\u0000\u0000\u0000\u0000\u0000\u0000\u0000\u0000\u0000\u0000\u0000\u0000\u0000\u0000\u0000\u0000\u0000\u0000\u0000\u0000\u0000\u0000\u0000\u0000\u0000\u0000\u0000\u0000\u0000\u0000\u0000\u0000\u0000\u0000\u0000\u0000\u0000\u0000\u0000\u0000\u0000\u0000\u0000\u0000\u0000\u0000\u0000\u0000\u0000\u0000\u0000\u0000\u0000\u0000\u0000\u0000\u0000\u0000\u0000\u0000\u0000\u0000\u0000\u0000\u0000\u0000\u0000\u0000\u0000\u0000\u0000\u0000\u0000\u0000\u0000\u0000\u0000\u0000\u0000\u0000\u0000\u0000\u0000\u0000\u0000\u0000\u0000\u0000\u0000\u0000\u0000\u0000\u0000\u0000\u0000\u0000\u0000\u0000\u0000\u0000\u0000\u0000\u0000\u0000\u0000\u0000\u0000\u0000\u0000\u0000\u0000\u0000\u0000\u0000\u0000\u0000\u0000\u0000\u0000\u0000\u0000\u0000\u0000\u0000\u0000\u0000\u0000\u0000\u0000\u0000\u0000\u0000\u0000\u0000\u0000\u0000\u0000\u0000\u0000\u0000\u0000\u0000\u0000\u0000\u0000\u0000\u0000\u0000\u0000\u0000\u0000\u0000\u0000\u0000\u0000\u0000\u0000\u0000\u0000\u0000\u0000\u0000\u0000\u0000\u0000\u0000\u0000\u0000\u0000\u0000\u0000\u0000\u0000\u0000\u0000\u0000\u0000\u0000\u0000\u0000\u0000\u0000\u0000\u0000\u0000\u0000\u0000\u0000\u0000\u0000\u0000\u0000\u0000\u0000\u0000\u0000\u0000\u0000\u0000\u0000\u0000\u0000\u0000\u0000\u0000\u0000\u0000\u0000\u0000\u0000\u0000\u0000\u0000",
        "\u0000\u0000\u0000\u0000\u0000\u0000\u0000\u0000\u0000\u0000\u0000\u0000\u0000\u0000\u0000\u0000\u0000\u0000\u0000\u0000\u0000\u0000\u0000\u0000\u0000\u0000\u0000\u0000\u0000\u0000\u0000\u0000\u0000\u0000\u0000\u0000\u0000\u0000\u0000\u0000\u0000\u0000\u0000\u0000\u0000\u0000\u0000\u0000\u0000\u0000\u0000\u0000\u0000\u0000\u0000\u0000\u0000\u0000\u0000\u0000\u0000\u0000\u0000\u0000\u0000\u0000\u0000\u0000\u0000\u0000\u0000\u0000\u0000\u0000\u0000\u0000\u0000\u0000\u0000\u0000\u0000\u0000\u0000\u0000\u0000\u0000\u0000\u0000\u0000\u0000\u0000\u0000\u0000\u0000\u0000\u0000\u0000\u0000\u0000\u0000\u0000\u0000\u0000\u0000\u0000\u0000\u0000\u0000\u0000\u0000\u0000\u0000\u0000\u0000\u0000\u0000\u0000\u0000\u0000\u0000\u0000\u0000\u0000\u0000\u0000\u0000\u0000\u0000\u0000\u0000\u0000\u0000\u0000\u0000\u0000\u0000\u0000\u0000\u0000\u0000\u0000\u0000\u0000\u0000\u0000\u0000\u0000\u0000\u0000\u0000\u0000\u0000\u0000\u0000\u0000\u0000\u0000\u0000\u0000\u0000\u0000\u0000\u0000\u0000\u0000\u0000\u0000\u0000\u0000\u0000\u0000\u0000\u0000\u0000\u0000\u0000\u0000\u0000\u0000\u0000\u0000\u0000\u0000\u0000\u0000\u0000\u0000\u0000\u0000\u0000\u0000\u0000\u0000\u0000\u0000\u0000\u0000\u0000\u0000\u0000\u0000\u0000\u0000\u0000\u0000\u0000\u0000\u0000\u0000\u0000\u0000\u0000\u0000\u0000\u0000\u0000\u0000\u0000\u0000\u0000\u0000\u0000\u0000\u0000\u0000\u0000\u0000\u0000\u0000\u0000\u0000\u0000\u0000\u0000\u0000\u0000\u0000\u0000\u0000\u0000\u0000\u0000\u0000\u0000\u0000\u0000\u0000\u0000\u0000\u0000\u0000\u0000\u0000\u0000\u0000\u0000\u0000\u0000\u0000\u0000\u0000\u0000\u0000\u0000\u0000\u0000\u0000\u0000\u0000\u0000\u0000\u0000\u0000\u0000\u0000\u0000\u0000\u0000\u0000\u0000\u0000\u0000\u0000\u0000\u0000\u0000\u0000\u0000\u0000\u0000\u0000\u0000\u0000\u0000\u0000\u0000\u0000\u0000\u0000\u0000\u0000\u0000\u0000\u0000\u0000\u0000\u0000\u0000\u0000\u0000\u0000\u0000\u0000\u0000\u0000\u0000\u0000\u0000\u0000\u0000\u0000\u0000\u0000\u0000\u0000\u0000\u0000\u0000\u0000\u0000\u0000\u0000\u0000\u0000\u0000\u0000\u0000\u0000\u0000\u0000\u0000\u0000\u0000\u0000\u0000\u0000\u0000\u0000\u0000\u0000\u0000\u0000\u0000\u0000\u0000\u0000\u0000\u0000\u0000\u0000\u0000\u0000\u0000\u0000\u0000\u0000\u0000\u0000\u0000\u0000\u0000\u0000\u0000\u0000\u0000\u0000\u0000\u0000",
