{
  "AcquisitionMatrixPE": 110,
  "AcquisitionNumber": 1,
  "AcquisitionTime": "16:41:8.582500",
  "BandwidthPerPixelPhaseEncode": 26.35,
  "BaseResolution": 110,
  "CoilString": "C:HEA;HEP",
  "ConversionSoftware": "dcm2niix",
  "ConversionSoftwareVersion": "v1.0.20190410  GCC6.3.0",
  "DerivedVendorReportedEchoSpacing": 0.000690012,
  "DeviceSerialNumber": "35422",
  "DwellTime": 2.6e-06,
  "EchoTime": 0.03,
  "EffectiveEchoSpacing": 0.000345006,
  "FlipAngle": 85,
  "ImageComments": "Unaliased_MB4_PE4_LB",
  "ImageOrientationPatientDICOM": [0.999994, -6.2713e-06, -0.00355808, 2.05092e-10, 0.999998, -0.00176249],
  "ImageType": [
    "ORIGINAL",
    "PRIMARY",
    "FMRI",
    "NONE",
    "MB",
    "ND",
    "MOSAIC"
],
  "ImagingFrequency": 123.177,
  "InPlanePhaseEncodingDirectionDICOM": "ROW",
  "InstitutionAddress": "kwanakro_599_C6F879_Seoul_KR_ZIP",
  "InstitutionName": "SNUBIC",
  "InstitutionalDepartmentName": "Department",
  "MRAcquisitionType": "2D",
  "MagneticFieldStrength": 3,
  "Manufacturer": "Siemens",
  "ManufacturersModelName": "TrioTim",
  "Modality": "MR",
  "MultibandAccelerationFactor": 4,
  "ParallelReductionFactorInPlane": 2,
  "PartialFourier": 1,
  "PatientPosition": "HFS",
  "PercentPhaseFOV": 100,
  "PhaseEncodingDirection": "i-",
  "PhaseEncodingSteps": 110,
  "PhaseResolution": 1,
  "PixelBandwidth": 1748,
  "ProcedureStepDescription": "SNU_SAVED",
  "ProtocolName": "WMGNG2_MB4_LR_SBRef",
  "PulseSequenceDetails": "%CustomerSeq%_cmrr_mbep2d_bold",
  "ReceiveCoilName": "32Ch_Head",
  "ReconMatrixPE": 110,
  "RefLinesPE": 32,
  "RepetitionTime": 1.5,
  "SAR": 0.151515,
  "ScanOptions": "FS",
  "ScanningSequence": "EP",
  "SequenceName": "epfid2d1_110",
  "SequenceVariant": "SK_SS",
  "SeriesDescription": "WMGNG2_MB4_LR_SBRef",
  "SeriesNumber": 20,
  "ShimSetting": [-4162, -29824, -1971, 561, -82, 142, 161, -96],
  "SliceThickness": 2.3,
  "SliceTiming": [0, 0.66, 1.3175, 0.47, 1.13, 0.2825, 0.9425, 0.095, 0.7525, 1.4125, 0.565, 1.225, 0.3775, 1.035, 0.1875, 0.8475, 0, 0.66, 1.3175, 0.47, 1.13, 0.2825, 0.9425, 0.095, 0.7525, 1.4125, 0.565, 1.225, 0.3775, 1.035, 0.1875, 0.8475, 0, 0.66, 1.3175, 0.47, 1.13, 0.2825, 0.9425, 0.095, 0.7525, 1.4125, 0.565, 1.225, 0.3775, 1.035, 0.1875, 0.8475, 0, 0.66, 1.3175, 0.47, 1.13, 0.2825, 0.9425, 0.095, 0.7525, 1.4125, 0.565, 1.225, 0.3775, 1.035, 0.1875, 0.8475],
  "SoftwareVersions": "syngo_MR_B17",
  "SpacingBetweenSlices": 2.3,
  "StationName": "MRC35422",
  "TaskName": "wmgng",
  "TotalReadoutTime": 0.0376057,
  "TxRefAmp": 353.546,
  "dcmmeta_affine": [
    [-2.3272578716278076, 4.773040851446808e-10, -0.008183597587049007, 129.1949462890625],
    [1.4595027096220292e-05, 2.3272690773010254, -0.0040537044405937195, -117.72020721435547],
    [-0.008280622772872448, 0.004101797938346863, 2.2999818325042725, -41.76268768310547],
    [0.0, 0.0, 0.0, 1.0]
],
  "dcmmeta_reorient_transform": [
    [0.0, -1.0, 0.0, 109.0],
    [1.0, 0.0, 0.0, 0.0],
    [0.0, 0.0, 1.0, 0.0],
    [0.0, 0.0, 0.0, 1.0]
],
  "dcmmeta_shape": [110, 110, 64, 357],
  "dcmmeta_slice_dim": 2,
  "dcmmeta_version": 0.6,
  "global": {
    "const": {
      "AcquisitionMatrix": [0, 110, 110, 0],
      "AngioFlag": "N",
      "BitsAllocated": 16,
      "BitsStored": 12,
      "Columns": 880,
      "EchoNumbers": 1,
      "EchoTime": 30.0,
      "EchoTrainLength": 1,
      "FlipAngle": 85.0,
      "HighBit": 11,
      "ImageOrientationPatient": [0.99999366999223, -6.27130101e-06, -0.0035580804001, 2.050916e-10, 0.99999844681079, -0.0017624914209],
      "ImagePositionPatient": [-1025.1892453922, -1031.945081251, -36.548358620667],
      "ImageType": [
        "ORIGINAL",
        "PRIMARY",
        "FMRI",
        "NONE",
        "MB",
        "ND",
        "MOSAIC"
],
      "ImagedNucleus": "1H",
      "ImagingFrequency": 123.177276,
      "InPlanePhaseEncodingDirection": "ROW",
      "MRAcquisitionType": "2D",
      "MagneticFieldStrength": 3.0,
      "Manufacturer": "SIEMENS",
      "ManufacturerModelName": "TrioTim",
      "Modality": "MR",
      "NumberOfAverages": 1.0,
      "NumberOfPhaseEncodingSteps": 110,
      "PercentPhaseFieldOfView": 100.0,
      "PercentSampling": 100.0,
      "PerformedProcedureStepStartTime": "154841.281000",
      "PhotometricInterpretation": "MONOCHROME2",
      "PixelBandwidth": 1748.0,
      "PixelRepresentation": 0,
      "PixelSpacing": [2.3272726535797, 2.3272726535797],
      "ProtocolName": "WMGNG2_MB4_LR_SBRef",
      "ReferencedPerformedProcedureStepSequence": [
        {
          "ReferencedSOPClassUID": "1.2.840.10008.3.1.2.3.3",
          "ReferencedSOPInstanceUID": "1.3.12.2.1107.5.2.32.35422.30000020042406484129600000000"}
],
      "RepetitionTime": 1500.0,
      "Rows": 880,
      "SAR": 0.15151457153407,
      "SamplesPerPixel": 1,
      "ScanOptions": "FS",
      "ScanningSequence": "EP",
      "SequenceName": "epfid2d1_110",
      "SequenceVariant": [
        "SK",
        "SS"
],
      "SeriesDescription": "WMGNG2_MB4_LR_SBRef",
      "SeriesNumber": 20,
      "SeriesTime": "165250.562000",
      "SliceLocation": -42.014564768374,
      "SliceThickness": 2.2999999523163,
      "SmallestImagePixelValue": 0,
      "SoftwareVersions": "syngo MR B17",
      "SpacingBetweenSlices": 2.2999999297681,
      "SpecificCharacterSet": "ISO_IR 100",
      "StudyID": "1",
      "StudyTime": "154841.140000",
      "TransmitCoilName": "Body",
      "VariableFlipAngleFlag": "N",
      "WindowCenterWidthExplanation": "Algo1",
      "dBdt": 0.0},
    "slices": {}
  },
  "time": {
    "samples": {
      "AcquisitionNumber": [1, 2, 3, 4, 5, 6, 7, 8, 9, 10, 11, 12, 13, 14, 15, 16, 17, 18, 19, 20, 21, 22, 23, 24, 25, 26, 27, 28, 29, 30, 31, 32, 33, 34, 35, 36, 37, 38, 39, 40, 41, 42, 43, 44, 45, 46, 47, 48, 49, 50, 51, 52, 53, 54, 55, 56, 57, 58, 59, 60, 61, 62, 63, 64, 65, 66, 67, 68, 69, 70, 71, 72, 73, 74, 75, 76, 77, 78, 79, 80, 81, 82, 83, 84, 85, 86, 87, 88, 89, 90, 91, 92, 93, 94, 95, 96, 97, 98, 99, 100, 101, 102, 103, 104, 105, 106, 107, 108, 109, 110, 111, 112, 113, 114, 115, 116, 117, 118, 119, 120, 121, 122, 123, 124, 125, 126, 127, 128, 129, 130, 131, 132, 133, 134, 135, 136, 137, 138, 139, 140, 141, 142, 143, 144, 145, 146, 147, 148, 149, 150, 151, 152, 153, 154, 155, 156, 157, 158, 159, 160, 161, 162, 163, 164, 165, 166, 167, 168, 169, 170, 171, 172, 173, 174, 175, 176, 177, 178, 179, 180, 181, 182, 183, 184, 185, 186, 187, 188, 189, 190, 191, 192, 193, 194, 195, 196, 197, 198, 199, 200, 201, 202, 203, 204, 205, 206, 207, 208, 209, 210, 211, 212, 213, 214, 215, 216, 217, 218, 219, 220, 221, 222, 223, 224, 225, 226, 227, 228, 229, 230, 231, 232, 233, 234, 235, 236, 237, 238, 239, 240, 241, 242, 243, 244, 245, 246, 247, 248, 249, 250, 251, 252, 253, 254, 255, 256, 257, 258, 259, 260, 261, 262, 263, 264, 265, 266, 267, 268, 269, 270, 271, 272, 273, 274, 275, 276, 277, 278, 279, 280, 281, 282, 283, 284, 285, 286, 287, 288, 289, 290, 291, 292, 293, 294, 295, 296, 297, 298, 299, 300, 301, 302, 303, 304, 305, 306, 307, 308, 309, 310, 311, 312, 313, 314, 315, 316, 317, 318, 319, 320, 321, 322, 323, 324, 325, 326, 327, 328, 329, 330, 331, 332, 333, 334, 335, 336, 337, 338, 339, 340, 341, 342, 343, 344, 345, 346, 347, 348, 349, 350, 351, 352, 353, 354, 355, 356, 357],
      "AcquisitionTime": ["164108.582500", "164110.090000", "164111.595000", "164113.100000", "164114.607500", "164116.112500", "164117.620000", "164119.125000", "164120.630000", "164122.137500", "164123.642500", "164125.150000", "164126.655000", "164128.162500", "164129.667500", "164131.172500", "164132.680000", "164134.185000", "164135.692500", "164137.197500", "164138.702500", "164140.210000", "164141.715000", "164143.222500", "164144.727500", "164146.232500", "164147.740000", "164149.245000", "164150.752500", "164152.257500", "164153.765000", "164155.270000", "164156.775000", "164158.282500", "164159.787500", "164201.295000", "164202.800000", "164204.305000", "164205.812500", "164207.317500", "164208.825000", "164210.330000", "164211.835000", "164213.342500", "164214.847500", "164216.355000", "164217.860000", "164219.365000", "164220.872500", "164222.377500", "164223.885000", "164225.390000", "164226.897500", "164228.402500", "164229.907500", "164231.415000", "164232.920000", "164234.427500", "164235.932500", "164237.437500", "164238.945000", "164240.450000", "164241.957500", "164243.462500", "164244.967500", "164246.475000", "164247.980000", "164249.487500", "164250.992500", "164252.497500", "164254.005000", "164255.510000", "164257.017500", "164258.522500", "164300.030000", "164301.535000", "164303.040000", "164304.547500", "164306.052500", "164307.560000", "164309.065000", "164310.570000", "164312.077500", "164313.582500", "164315.090000", "164316.595000", "164318.100000", "164319.607500", "164321.112500", "164322.620000", "164324.125000", "164325.630000", "164327.137500", "164328.642500", "164330.150000", "164331.655000", "164333.162500", "164334.667500", "164336.172500", "164337.680000", "164339.185000", "164340.692500", "164342.197500", "164343.702500", "164345.210000", "164346.715000", "164348.222500", "164349.727500", "164351.232500", "164352.740000", "164354.245000", "164355.752500", "164357.257500", "164358.765000", "164400.270000", "164401.775000", "164403.282500", "164404.787500", "164406.295000", "164407.800000", "164409.305000", "164410.812500", "164412.317500", "164413.825000", "164415.330000", "164416.835000", "164418.342500", "164419.847500", "164421.355000", "164422.860000", "164424.365000", "164425.872500", "164427.377500", "164428.885000", "164430.390000", "164431.897500", "164433.402500", "164434.907500", "164436.415000", "164437.920000", "164439.427500", "164440.932500", "164442.437500", "164443.945000", "164445.450000", "164446.957500", "164448.462500", "164449.967500", "164451.475000", "164452.980000", "164454.487500", "164455.992500", "164457.497500", "164459.005000", "164500.510000", "164502.017500", "164503.522500", "164505.030000", "164506.535000", "164508.040000", "164509.547500", "164511.052500", "164512.560000", "164514.065000", "164515.570000", "164517.077500", "164518.582500", "164520.090000", "164521.595000", "164523.100000", "164524.607500", "164526.112500", "164527.620000", "164529.125000", "164530.630000", "164532.137500", "164533.642500", "164535.150000", "164536.655000", "164538.162500", "164539.667500", "164541.172500", "164542.680000", "164544.185000", "164545.692500", "164547.197500", "164548.702500", "164550.210000", "164551.715000", "164553.222500", "164554.727500", "164556.232500", "164557.740000", "164559.245000", "164600.752500", "164602.257500", "164603.765000", "164605.270000", "164606.775000", "164608.282500", "164609.787500", "164611.295000", "164612.800000", "164614.305000", "164615.812500", "164617.317500", "164618.825000", "164620.330000", "164621.835000", "164623.342500", "164624.847500", "164626.355000", "164627.860000", "164629.365000", "164630.872500", "164632.377500", "164633.885000", "164635.390000", "164636.897500", "164638.402500", "164639.907500", "164641.415000", "164642.920000", "164644.427500", "164645.932500", "164647.437500", "164648.945000", "164650.450000", "164651.957500", "164653.462500", "164654.967500", "164656.475000", "164657.980000", "164659.487500", "164700.992500", "164702.497500", "164704.005000", "164705.510000", "164707.017500", "164708.522500", "164710.030000", "164711.535000", "164713.040000", "164714.547500", "164716.052500", "164717.560000", "164719.065000", "164720.570000", "164722.077500", "164723.582500", "164725.090000", "164726.595000", "164728.100000", "164729.607500", "164731.112500", "164732.620000", "164734.125000", "164735.630000", "164737.137500", "164738.642500", "164740.150000", "164741.655000", "164743.162500", "164744.667500", "164746.172500", "164747.680000", "164749.185000", "164750.692500", "164752.197500", "164753.702500", "164755.210000", "164756.715000", "164758.222500", "164759.727500", "164801.232500", "164802.740000", "164804.245000", "164805.752500", "164807.257500", "164808.765000", "164810.270000", "164811.775000", "164813.282500", "164814.787500", "164816.295000", "164817.800000", "164819.305000", "164820.812500", "164822.317500", "164823.825000", "164825.330000", "164826.835000", "164828.342500", "164829.847500", "164831.355000", "164832.860000", "164834.365000", "164835.872500", "164837.377500", "164838.885000", "164840.390000", "164841.897500", "164843.402500", "164844.907500", "164846.415000", "164847.920000", "164849.427500", "164850.932500", "164852.437500", "164853.945000", "164855.450000", "164856.957500", "164858.462500", "164859.967500", "164901.475000", "164902.980000", "164904.487500", "164905.992500", "164907.497500", "164909.005000", "164910.510000", "164912.017500", "164913.522500", "164915.030000", "164916.535000", "164918.040000", "164919.547500", "164921.052500", "164922.560000", "164924.065000", "164925.570000", "164927.077500", "164928.582500", "164930.090000", "164931.595000", "164933.100000", "164934.607500", "164936.112500", "164937.620000", "164939.125000", "164940.630000", "164942.137500", "164943.642500", "164945.150000", "164946.655000", "164948.162500", "164949.667500", "164951.172500", "164952.680000", "164954.185000", "164955.692500", "164957.197500", "164958.702500", "165000.210000", "165001.715000", "165003.222500", "165004.727500"],
      "ContentTime": ["165250.562000", "165250.562000", "165250.578000", "165350.562000", "165350.562000", "165350.562000", "165350.562000", "165350.562000", "165350.562000", "165350.562000", "165350.562000", "165350.578000", "165350.578000", "165350.578000", "165350.578000", "165350.578000", "165350.578000", "165350.578000", "165350.578000", "165350.593000", "165350.593000", "165350.593000", "165350.593000", "165350.593000", "165350.593000", "165350.593000", "165350.593000", "165350.609000", "165450.562000", "165450.562000", "165450.562000", "165450.562000", "165450.562000", "165450.562000", "165450.562000", "165450.578000", "165450.578000", "165450.578000", "165450.578000", "165450.578000", "165450.578000", "165450.578000", "165450.578000", "165450.578000", "165450.593000", "165450.593000", "165450.593000", "165450.593000", "165450.593000", "165450.593000", "165450.593000", "165450.593000", "165450.593000", "165450.609000", "165550.562000", "165550.562000", "165550.562000", "165550.562000", "165550.562000", "165550.562000", "165550.562000", "165550.578000", "165550.578000", "165550.578000", "165550.578000", "165550.578000", "165550.578000", "165550.593000", "165550.593000", "165550.593000", "165550.593000", "165550.609000", "165550.609000", "165550.609000", "165550.609000", "165550.625000", "165550.625000", "165550.625000", "165550.625000", "165550.625000", "165550.625000", "165650.562000", "165650.562000", "165650.562000", "165650.562000", "165650.562000", "165650.562000", "165650.562000", "165650.578000", "165650.578000", "165650.578000", "165650.578000", "165650.578000", "165650.593000", "165650.593000", "165650.593000", "165650.593000", "165650.593000", "165650.593000", "165650.593000", "165650.593000", "165650.609000", "165650.609000", "165650.609000", "165650.609000", "165650.609000", "165650.609000", "165750.562000", "165750.562000", "165750.562000", "165750.562000", "165750.562000", "165750.562000", "165750.578000", "165750.578000", "165750.578000", "165750.578000", "165750.578000", "165750.578000", "165750.593000", "165750.593000", "165750.593000", "165750.593000", "165750.593000", "165750.593000", "165750.593000", "165750.593000", "165750.609000", "165750.609000", "165750.609000", "165750.609000", "165750.609000", "165750.609000", "165850.562000", "165850.562000", "165850.562000", "165850.562000", "165850.562000", "165850.562000", "165850.562000", "165850.578000", "165850.578000", "165850.578000", "165850.578000", "165850.578000", "165850.578000", "165850.578000", "165850.593000", "165850.593000", "165850.593000", "165850.593000", "165850.593000", "165850.593000", "165850.593000", "165850.609000", "165850.609000", "165850.609000", "165850.609000", "165850.609000", "165950.562000", "165950.562000", "165950.562000", "165950.578000", "165950.578000", "165950.578000", "165950.578000", "165950.578000", "165950.593000", "165950.593000", "165950.593000", "165950.593000", "165950.593000", "165950.593000", "165950.593000", "165950.593000", "165950.609000", "165950.609000", "165950.609000", "165950.609000", "165950.609000", "165950.609000", "165950.609000", "165950.609000", "165950.625000", "165950.625000", "170050.562000", "170050.562000", "170050.562000", "170050.562000", "170050.562000", "170050.578000", "170050.578000", "170050.578000", "170050.578000", "170050.578000", "170050.578000", "170050.578000", "170050.593000", "170050.593000", "170050.593000", "170050.593000", "170050.593000", "170050.593000", "170050.593000", "170050.593000", "170050.593000", "170050.609000", "170050.609000", "170050.609000", "170050.609000", "170150.562000", "170150.562000", "170150.562000", "170150.562000", "170150.562000", "170150.562000", "170150.562000", "170150.562000", "170150.578000", "170150.578000", "170150.578000", "170150.578000", "170150.578000", "170150.578000", "170150.578000", "170150.578000", "170150.578000", "170150.593000", "170150.593000", "170150.593000", "170150.593000", "170150.593000", "170150.593000", "170150.593000", "170150.593000", "170150.609000", "170150.609000", "170250.562000", "170250.562000", "170250.562000", "170250.578000", "170250.578000", "170250.578000", "170250.578000", "170250.593000", "170250.593000", "170250.593000", "170250.593000", "170250.593000", "170250.593000", "170250.593000", "170250.593000", "170250.593000", "170250.609000", "170250.609000", "170250.609000", "170250.609000", "170250.609000", "170250.609000", "170250.609000", "170250.609000", "170250.609000", "170250.625000", "170350.562000", "170350.562000", "170350.562000", "170350.578000", "170350.578000", "170350.578000", "170350.578000", "170350.578000", "170350.578000", "170350.578000", "170350.593000", "170350.593000", "170350.593000", "170350.593000", "170350.593000", "170350.593000", "170350.593000", "170350.609000", "170350.609000", "170350.609000", "170350.609000", "170350.609000", "170350.609000", "170350.625000", "170350.625000", "170350.625000", "170450.562000", "170450.562000", "170450.562000", "170450.562000", "170450.562000", "170450.562000", "170450.562000", "170450.562000", "170450.578000", "170450.578000", "170450.578000", "170450.578000", "170450.578000", "170450.578000", "170450.578000", "170450.578000", "170450.578000", "170450.593000", "170450.593000", "170450.593000", "170450.593000", "170450.609000", "170450.609000", "170450.609000", "170450.609000", "170450.609000", "170550.562000", "170550.562000", "170550.562000", "170550.562000", "170550.562000", "170550.562000", "170550.562000", "170550.578000", "170550.578000", "170550.578000", "170550.578000", "170550.578000", "170550.578000", "170550.578000", "170550.578000", "170550.578000", "170550.593000", "170550.593000", "170550.593000", "170550.593000", "170550.593000", "170550.593000", "170550.593000", "170550.593000", "170550.593000", "170550.609000", "170625.671000", "170625.671000", "170625.671000", "170625.671000", "170625.687000", "170625.687000", "170625.687000", "170625.687000", "170625.687000", "170625.687000", "170625.687000", "170625.687000", "170625.687000", "170625.703000", "170625.703000", "170625.703000"],
      "DataSetTrailingPadding": [
        "\u0000\u0000\u0000\u0000\u0000\u0000\u0000\u0000\u0000\u0000\u0000\u0000\u0000\u0000\u0000\u0000\u0000\u0000\u0000\u0000\u0000\u0000\u0000\u0000\u0000\u0000\u0000\u0000\u0000\u0000\u0000\u0000\u0000\u0000\u0000\u0000\u0000\u0000\u0000\u0000\u0000\u0000\u0000\u0000\u0000\u0000\u0000\u0000\u0000\u0000\u0000\u0000\u0000\u0000\u0000\u0000\u0000\u0000\u0000\u0000\u0000\u0000\u0000\u0000\u0000\u0000\u0000\u0000\u0000\u0000\u0000\u0000\u0000\u0000\u0000\u0000\u0000\u0000\u0000\u0000\u0000\u0000\u0000\u0000\u0000\u0000\u0000\u0000\u0000\u0000\u0000\u0000\u0000\u0000\u0000\u0000\u0000\u0000\u0000\u0000\u0000\u0000\u0000\u0000\u0000\u0000\u0000\u0000\u0000\u0000\u0000\u0000\u0000\u0000\u0000\u0000\u0000\u0000\u0000\u0000\u0000\u0000\u0000\u0000\u0000\u0000\u0000\u0000\u0000\u0000\u0000\u0000\u0000\u0000\u0000\u0000\u0000\u0000\u0000\u0000\u0000\u0000\u0000\u0000\u0000\u0000\u0000\u0000\u0000\u0000\u0000\u0000\u0000\u0000\u0000\u0000\u0000\u0000\u0000\u0000\u0000\u0000\u0000\u0000\u0000\u0000\u0000\u0000\u0000\u0000\u0000\u0000\u0000\u0000\u0000\u0000\u0000\u0000\u0000\u0000\u0000\u0000\u0000\u0000\u0000\u0000\u0000\u0000\u0000\u0000\u0000\u0000\u0000\u0000\u0000\u0000\u0000\u0000\u0000\u0000\u0000\u0000\u0000\u0000\u0000\u0000\u0000\u0000\u0000\u0000\u0000\u0000\u0000\u0000\u0000\u0000\u0000\u0000\u0000\u0000\u0000\u0000\u0000\u0000\u0000\u0000\u0000\u0000\u0000\u0000\u0000\u0000\u0000\u0000\u0000\u0000\u0000\u0000\u0000\u0000\u0000\u0000\u0000\u0000\u0000\u0000\u0000\u0000\u0000\u0000\u0000\u0000\u0000\u0000\u0000\u0000\u0000\u0000\u0000\u0000\u0000\u0000\u0000\u0000\u0000\u0000\u0000\u0000\u0000\u0000\u0000\u0000\u0000\u0000\u0000\u0000\u0000\u0000\u0000\u0000\u0000\u0000\u0000\u0000\u0000\u0000\u0000\u0000\u0000\u0000\u0000\u0000\u0000\u0000\u0000\u0000\u0000\u0000\u0000\u0000\u0000\u0000\u0000\u0000\u0000\u0000\u0000\u0000\u0000\u0000\u0000\u0000\u0000\u0000\u0000\u0000\u0000\u0000\u0000\u0000\u0000\u0000\u0000\u0000\u0000\u0000\u0000\u0000\u0000\u0000\u0000\u0000\u0000\u0000\u0000\u0000\u0000\u0000\u0000\u0000\u0000\u0000\u0000\u0000\u0000\u0000\u0000\u0000\u0000\u0000\u0000\u0000\u0000\u0000\u0000\u0000\u0000\u0000\u0000\u0000\u0000\u0000\u0000\u0000\u0000\u0000\u0000\u0000\u0000\u0000\u0000\u0000\u0000\u0000\u0000\u0000",
        "\u0000\u0000\u0000\u0000\u0000\u0000\u0000\u0000\u0000\u0000\u0000\u0000\u0000\u0000\u0000\u0000\u0000\u0000\u0000\u0000\u0000\u0000\u0000\u0000\u0000\u0000\u0000\u0000\u0000\u0000\u0000\u0000\u0000\u0000\u0000\u0000\u0000\u0000\u0000\u0000\u0000\u0000\u0000\u0000\u0000\u0000\u0000\u0000\u0000\u0000\u0000\u0000\u0000\u0000\u0000\u0000\u0000\u0000\u0000\u0000\u0000\u0000\u0000\u0000\u0000\u0000\u0000\u0000\u0000\u0000\u0000\u0000\u0000\u0000\u0000\u0000\u0000\u0000\u0000\u0000\u0000\u0000\u0000\u0000\u0000\u0000\u0000\u0000\u0000\u0000\u0000\u0000\u0000\u0000\u0000\u0000\u0000\u0000\u0000\u0000\u0000\u0000\u0000\u0000\u0000\u0000\u0000\u0000\u0000\u0000\u0000\u0000\u0000\u0000\u0000\u0000\u0000\u0000\u0000\u0000\u0000\u0000\u0000\u0000\u0000\u0000\u0000\u0000\u0000\u0000\u0000\u0000\u0000\u0000\u0000\u0000\u0000\u0000\u0000\u0000\u0000\u0000\u0000\u0000\u0000\u0000\u0000\u0000\u0000\u0000\u0000\u0000\u0000\u0000\u0000\u0000\u0000\u0000\u0000\u0000\u0000\u0000\u0000\u0000\u0000\u0000\u0000\u0000\u0000\u0000\u0000\u0000\u0000\u0000\u0000\u0000\u0000\u0000\u0000\u0000\u0000\u0000\u0000\u0000\u0000\u0000\u0000\u0000\u0000\u0000\u0000\u0000\u0000\u0000\u0000\u0000\u0000\u0000\u0000\u0000\u0000\u0000\u0000\u0000\u0000\u0000\u0000\u0000\u0000\u0000\u0000\u0000\u0000\u0000\u0000\u0000\u0000\u0000\u0000\u0000\u0000\u0000\u0000\u0000\u0000\u0000\u0000\u0000\u0000\u0000\u0000\u0000\u0000\u0000\u0000\u0000\u0000\u0000\u0000\u0000\u0000\u0000\u0000\u0000\u0000\u0000\u0000\u0000\u0000\u0000\u0000\u0000\u0000\u0000\u0000\u0000\u0000\u0000\u0000\u0000\u0000\u0000\u0000\u0000\u0000\u0000\u0000\u0000\u0000\u0000\u0000\u0000\u0000\u0000\u0000\u0000\u0000\u0000\u0000\u0000\u0000\u0000\u0000\u0000\u0000\u0000\u0000\u0000\u0000\u0000\u0000\u0000\u0000\u0000\u0000\u0000\u0000\u0000\u0000\u0000\u0000\u0000\u0000\u0000\u0000\u0000\u0000\u0000\u0000\u0000\u0000\u0000\u0000\u0000\u0000\u0000\u0000\u0000\u0000\u0000\u0000\u0000\u0000\u0000\u0000\u0000\u0000\u0000\u0000\u0000\u0000\u0000\u0000\u0000\u0000\u0000\u0000\u0000\u0000\u0000\u0000\u0000\u0000\u0000\u0000\u0000\u0000\u0000\u0000\u0000\u0000\u0000\u0000\u0000\u0000\u0000\u0000\u0000\u0000\u0000\u0000\u0000\u0000\u0000\u0000\u0000\u0000\u0000\u0000\u0000\u0000\u0000\u0000\u0000\u0000\u0000",
        "\u0000\u0000\u0000\u0000\u0000\u0000\u0000\u0000\u0000\u0000\u0000\u0000\u0000\u0000\u0000\u0000\u0000\u0000\u0000\u0000\u0000\u0000\u0000\u0000\u0000\u0000\u0000\u0000\u0000\u0000\u0000\u0000\u0000\u0000\u0000\u0000\u0000\u0000\u0000\u0000\u0000\u0000\u0000\u0000\u0000\u0000\u0000\u0000\u0000\u0000\u0000\u0000\u0000\u0000\u0000\u0000\u0000\u0000\u0000\u0000\u0000\u0000\u0000\u0000\u0000\u0000\u0000\u0000\u0000\u0000\u0000\u0000\u0000\u0000\u0000\u0000\u0000\u0000\u0000\u0000\u0000\u0000\u0000\u0000\u0000\u0000\u0000\u0000\u0000\u0000\u0000\u0000\u0000\u0000\u0000\u0000\u0000\u0000\u0000\u0000\u0000\u0000\u0000\u0000\u0000\u0000\u0000\u0000\u0000\u0000\u0000\u0000\u0000\u0000\u0000\u0000\u0000\u0000\u0000\u0000\u0000\u0000\u0000\u0000\u0000\u0000\u0000\u0000\u0000\u0000\u0000\u0000\u0000\u0000\u0000\u0000\u0000\u0000\u0000\u0000\u0000\u0000\u0000\u0000\u0000\u0000\u0000\u0000\u0000\u0000\u0000\u0000\u0000\u0000\u0000\u0000\u0000\u0000\u0000\u0000\u0000\u0000\u0000\u0000\u0000\u0000\u0000\u0000\u0000\u0000\u0000\u0000\u0000\u0000\u0000\u0000\u0000\u0000\u0000\u0000\u0000\u0000\u0000\u0000\u0000\u0000\u0000\u0000\u0000\u0000\u0000\u0000\u0000\u0000\u0000\u0000\u0000\u0000\u0000\u0000\u0000\u0000\u0000\u0000\u0000\u0000\u0000\u0000\u0000\u0000\u0000\u0000\u0000\u0000\u0000\u0000\u0000\u0000\u0000\u0000\u0000\u0000\u0000\u0000\u0000\u0000\u0000\u0000\u0000\u0000\u0000\u0000\u0000\u0000\u0000\u0000\u0000\u0000\u0000\u0000\u0000\u0000\u0000\u0000\u0000\u0000\u0000\u0000\u0000\u0000\u0000\u0000\u0000\u0000\u0000\u0000\u0000\u0000\u0000\u0000\u0000\u0000\u0000\u0000\u0000\u0000\u0000\u0000\u0000\u0000\u0000\u0000\u0000\u0000\u0000\u0000\u0000\u0000\u0000\u0000\u0000\u0000\u0000\u0000\u0000\u0000\u0000\u0000\u0000\u0000\u0000\u0000\u0000\u0000\u0000\u0000\u0000\u0000\u0000\u0000\u0000\u0000\u0000\u0000\u0000\u0000\u0000\u0000\u0000\u0000\u0000\u0000\u0000\u0000\u0000\u0000\u0000\u0000\u0000\u0000\u0000\u0000\u0000\u0000\u0000\u0000\u0000\u0000\u0000\u0000\u0000\u0000\u0000\u0000\u0000\u0000\u0000\u0000\u0000\u0000\u0000\u0000\u0000\u0000\u0000\u0000\u0000\u0000\u0000\u0000\u0000\u0000\u0000\u0000\u0000\u0000\u0000\u0000\u0000\u0000\u0000\u0000\u0000\u0000\u0000\u0000\u0000\u0000\u0000\u0000\u0000\u0000\u0000\u0000\u0000\u0000\u0000\u0000",
        "\u0000\u0000\u0000\u0000\u0000\u0000\u0000\u0000\u0000\u0000\u0000\u0000\u0000\u0000\u0000\u0000\u0000\u0000\u0000\u0000\u0000\u0000\u0000\u0000\u0000\u0000\u0000\u0000\u0000\u0000\u0000\u0000\u0000\u0000\u0000\u0000\u0000\u0000\u0000\u0000\u0000\u0000\u0000\u0000\u0000\u0000\u0000\u0000\u0000\u0000\u0000\u0000\u0000\u0000\u0000\u0000\u0000\u0000\u0000\u0000\u0000\u0000\u0000\u0000\u0000\u0000\u0000\u0000\u0000\u0000\u0000\u0000\u0000\u0000\u0000\u0000\u0000\u0000\u0000\u0000\u0000\u0000\u0000\u0000\u0000\u0000\u0000\u0000\u0000\u0000\u0000\u0000\u0000\u0000\u0000\u0000\u0000\u0000\u0000\u0000\u0000\u0000\u0000\u0000\u0000\u0000\u0000\u0000\u0000\u0000\u0000\u0000\u0000\u0000\u0000\u0000\u0000\u0000\u0000\u0000\u0000\u0000\u0000\u0000\u0000\u0000\u0000\u0000\u0000\u0000\u0000\u0000\u0000\u0000\u0000\u0000\u0000\u0000\u0000\u0000\u0000\u0000\u0000\u0000\u0000\u0000\u0000\u0000\u0000\u0000\u0000\u0000\u0000\u0000\u0000\u0000\u0000\u0000\u0000\u0000\u0000\u0000\u0000\u0000\u0000\u0000\u0000\u0000\u0000\u0000\u0000\u0000\u0000\u0000\u0000\u0000\u0000\u0000\u0000\u0000\u0000\u0000\u0000\u0000\u0000\u0000\u0000\u0000\u0000\u0000\u0000\u0000\u0000\u0000\u0000\u0000\u0000\u0000\u0000\u0000\u0000\u0000\u0000\u0000\u0000\u0000\u0000\u0000\u0000\u0000\u0000\u0000\u0000\u0000\u0000\u0000\u0000\u0000\u0000\u0000\u0000\u0000\u0000\u0000\u0000\u0000\u0000\u0000\u0000\u0000\u0000\u0000\u0000\u0000\u0000\u0000\u0000\u0000\u0000\u0000\u0000\u0000\u0000\u0000\u0000\u0000\u0000\u0000\u0000\u0000\u0000\u0000\u0000\u0000\u0000\u0000\u0000\u0000\u0000\u0000\u0000\u0000\u0000\u0000\u0000\u0000\u0000\u0000\u0000\u0000\u0000\u0000\u0000\u0000\u0000\u0000\u0000\u0000\u0000\u0000\u0000\u0000\u0000\u0000\u0000\u0000\u0000\u0000\u0000\u0000\u0000\u0000\u0000\u0000\u0000\u0000\u0000\u0000\u0000\u0000\u0000\u0000\u0000\u0000\u0000\u0000\u0000\u0000\u0000\u0000\u0000\u0000\u0000\u0000\u0000\u0000\u0000\u0000\u0000\u0000\u0000\u0000\u0000\u0000\u0000\u0000\u0000\u0000\u0000\u0000\u0000\u0000\u0000\u0000\u0000\u0000\u0000\u0000\u0000\u0000\u0000\u0000\u0000\u0000\u0000\u0000\u0000\u0000\u0000\u0000\u0000\u0000\u0000\u0000\u0000\u0000\u0000\u0000\u0000\u0000\u0000\u0000\u0000\u0000\u0000\u0000\u0000\u0000\u0000\u0000\u0000\u0000\u0000\u0000\u0000\u0000\u0000\u0000",
