{
  "AcquisitionMatrixPE": 110,
  "AcquisitionNumber": 1,
  "AcquisitionTime": "18:53:44.242500",
  "BandwidthPerPixelPhaseEncode": 26.35,
  "BaseResolution": 110,
  "CoilString": "C:HEA;HEP",
  "ConversionSoftware": "dcm2niix",
  "ConversionSoftwareVersion": "v1.0.20190410  GCC6.3.0",
  "DerivedVendorReportedEchoSpacing": 0.000690012,
  "DeviceSerialNumber": "35422",
  "DwellTime": 2.6e-06,
  "EchoTime": 0.03,
  "EffectiveEchoSpacing": 0.000345006,
  "FlipAngle": 85,
  "ImageComments": "Unaliased_MB4_PE4_LB",
  "ImageOrientationPatientDICOM": [0.997473, -0.0126822, -0.0699056, 4.04385e-10, 0.983939, -0.178505],
  "ImageType": [
    "ORIGINAL",
    "PRIMARY",
    "FMRI",
    "NONE",
    "MB",
    "ND",
    "MOSAIC"
],
  "ImagingFrequency": 123.177,
  "InPlanePhaseEncodingDirectionDICOM": "ROW",
  "InstitutionAddress": "kwanakro_599_C4F276_Seoul_KR_ZIP",
  "InstitutionName": "SNUBIC",
  "InstitutionalDepartmentName": "Department",
  "MRAcquisitionType": "2D",
  "MagneticFieldStrength": 3,
  "Manufacturer": "Siemens",
  "ManufacturersModelName": "TrioTim",
  "Modality": "MR",
  "MultibandAccelerationFactor": 4,
  "ParallelReductionFactorInPlane": 2,
  "PartialFourier": 1,
  "PatientPosition": "HFS",
  "PercentPhaseFOV": 100,
  "PhaseEncodingDirection": "i-",
  "PhaseEncodingSteps": 110,
  "PhaseResolution": 1,
  "PixelBandwidth": 1748,
  "ProcedureStepDescription": "SNU_SAVED",
  "ProtocolName": "WMGNG1_MB4_LR_SBRef",
  "PulseSequenceDetails": "%CustomerSeq%_cmrr_mbep2d_bold",
  "ReceiveCoilName": "32Ch_Head",
  "ReconMatrixPE": 110,
  "RefLinesPE": 32,
  "RepetitionTime": 1.5,
  "SAR": 0.127082,
  "ScanOptions": "FS",
  "ScanningSequence": "EP",
  "SequenceName": "epfid2d1_110",
  "SequenceVariant": "SK_SS",
  "SeriesDescription": "WMGNG1_MB4_LR_SBRef",
  "SeriesNumber": 3,
  "ShimSetting": [-4186, -29784, -2001, 773, -93, 432, -49, 43],
  "SliceThickness": 2.3,
  "SliceTiming": [0, 0.66, 1.3175, 0.4725, 1.13, 0.2825, 0.9425, 0.095, 0.755, 1.4125, 0.565, 1.225, 0.3775, 1.035, 0.19, 0.8475, 0, 0.66, 1.3175, 0.4725, 1.13, 0.2825, 0.9425, 0.095, 0.755, 1.4125, 0.565, 1.225, 0.3775, 1.035, 0.19, 0.8475, 0, 0.66, 1.3175, 0.4725, 1.13, 0.2825, 0.9425, 0.095, 0.755, 1.4125, 0.565, 1.225, 0.3775, 1.035, 0.19, 0.8475, 0, 0.66, 1.3175, 0.4725, 1.13, 0.2825, 0.9425, 0.095, 0.755, 1.4125, 0.565, 1.225, 0.3775, 1.035, 0.19, 0.8475],
  "SoftwareVersions": "syngo_MR_B17",
  "SpacingBetweenSlices": 2.3,
  "StationName": "MRC35422",
  "TaskName": "wmgng",
  "TotalReadoutTime": 0.0376057,
  "TxRefAmp": 317.361,
  "dcmmeta_affine": [
    [-2.3213915824890137, 9.411134094250428e-10, -0.1634073406457901, 130.10183715820312],
    [0.029514877125620842, 2.2898943424224854, -0.409523606300354, -115.39996337890625],
    [-0.16268937289714813, 0.41542941331863403, 2.257340908050537, -62.960330963134766],
    [0.0, 0.0, 0.0, 1.0]
],
  "dcmmeta_reorient_transform": [
    [0.0, -1.0, 0.0, 109.0],
    [1.0, 0.0, 0.0, 0.0],
    [0.0, 0.0, 1.0, 0.0],
    [0.0, 0.0, 0.0, 1.0]
],
  "dcmmeta_shape": [110, 110, 64, 357],
  "dcmmeta_slice_dim": 2,
  "dcmmeta_version": 0.6,
  "global": {
    "const": {
      "AcquisitionMatrix": [0, 110, 110, 0],
      "AngioFlag": "N",
      "BitsAllocated": 16,
      "BitsStored": 12,
      "Columns": 880,
      "EchoNumbers": 1,
      "EchoTime": 30.0,
      "EchoTrainLength": 1,
      "FlipAngle": 85.0,
      "HighBit": 11,
      "ImageOrientationPatient": [0.99747299242284, -0.0126821744594, -0.0699055923229, 4.043847e-10, 0.98393903496794, -0.1785048331737],
      "ImagePositionPatient": [-1023.8376083803, -1004.4446458361, 204.89720814455],
      "ImageType": [
        "ORIGINAL",
        "PRIMARY",
        "FMRI",
        "NONE",
        "MB",
        "ND",
        "MOSAIC"
],
      "ImagedNucleus": "1H",
      "ImagingFrequency": 123.177501,
      "InPlanePhaseEncodingDirection": "ROW",
      "MRAcquisitionType": "2D",
      "MagneticFieldStrength": 3.0,
      "Manufacturer": "SIEMENS",
      "ManufacturerModelName": "TrioTim",
      "Modality": "MR",
      "NumberOfAverages": 1.0,
      "NumberOfPhaseEncodingSteps": 110,
      "PercentPhaseFieldOfView": 100.0,
      "PercentSampling": 100.0,
      "PerformedProcedureStepStartTime": "183952.453000",
      "PhotometricInterpretation": "MONOCHROME2",
      "PixelBandwidth": 1748.0,
      "PixelRepresentation": 0,
      "PixelSpacing": [2.3272726535797, 2.3272726535797],
      "ProtocolName": "WMGNG1_MB4_LR_SBRef",
      "ReferencedPerformedProcedureStepSequence": [
        {
          "ReferencedSOPClassUID": "1.2.840.10008.3.1.2.3.3",
          "ReferencedSOPInstanceUID": "1.3.12.2.1107.5.2.32.35422.30000019112200213225000000004"}
],
      "RepetitionTime": 1500.0,
      "Rows": 880,
      "SAR": 0.12708234772668,
      "SamplesPerPixel": 1,
      "ScanOptions": "FS",
      "ScanningSequence": "EP",
      "SequenceName": "epfid2d1_110",
      "SequenceVariant": [
        "SK",
        "SS"
],
      "SeriesDescription": "WMGNG1_MB4_LR_SBRef",
      "SeriesNumber": 3,
      "SeriesTime": "185507.421000",
      "SliceLocation": -50.488488683347,
      "SliceThickness": 2.2999999523163,
      "SmallestImagePixelValue": 0,
      "SoftwareVersions": "syngo MR B17",
      "SpacingBetweenSlices": 2.2999999222233,
      "SpecificCharacterSet": "ISO_IR 100",
      "StudyID": "1",
      "StudyTime": "183952.375000",
      "TransmitCoilName": "Body",
      "VariableFlipAngleFlag": "N",
      "WindowCenterWidthExplanation": "Algo1",
      "dBdt": 0.0},
    "slices": {}
  },
  "time": {
    "samples": {
      "AcquisitionNumber": [1, 2, 3, 4, 5, 6, 7, 8, 9, 10, 11, 12, 13, 14, 15, 16, 17, 18, 19, 20, 21, 22, 23, 24, 25, 26, 27, 28, 29, 30, 31, 32, 33, 34, 35, 36, 37, 38, 39, 40, 41, 42, 43, 44, 45, 46, 47, 48, 49, 50, 51, 52, 53, 54, 55, 56, 57, 58, 59, 60, 61, 62, 63, 64, 65, 66, 67, 68, 69, 70, 71, 72, 73, 74, 75, 76, 77, 78, 79, 80, 81, 82, 83, 84, 85, 86, 87, 88, 89, 90, 91, 92, 93, 94, 95, 96, 97, 98, 99, 100, 101, 102, 103, 104, 105, 106, 107, 108, 109, 110, 111, 112, 113, 114, 115, 116, 117, 118, 119, 120, 121, 122, 123, 124, 125, 126, 127, 128, 129, 130, 131, 132, 133, 134, 135, 136, 137, 138, 139, 140, 141, 142, 143, 144, 145, 146, 147, 148, 149, 150, 151, 152, 153, 154, 155, 156, 157, 158, 159, 160, 161, 162, 163, 164, 165, 166, 167, 168, 169, 170, 171, 172, 173, 174, 175, 176, 177, 178, 179, 180, 181, 182, 183, 184, 185, 186, 187, 188, 189, 190, 191, 192, 193, 194, 195, 196, 197, 198, 199, 200, 201, 202, 203, 204, 205, 206, 207, 208, 209, 210, 211, 212, 213, 214, 215, 216, 217, 218, 219, 220, 221, 222, 223, 224, 225, 226, 227, 228, 229, 230, 231, 232, 233, 234, 235, 236, 237, 238, 239, 240, 241, 242, 243, 244, 245, 246, 247, 248, 249, 250, 251, 252, 253, 254, 255, 256, 257, 258, 259, 260, 261, 262, 263, 264, 265, 266, 267, 268, 269, 270, 271, 272, 273, 274, 275, 276, 277, 278, 279, 280, 281, 282, 283, 284, 285, 286, 287, 288, 289, 290, 291, 292, 293, 294, 295, 296, 297, 298, 299, 300, 301, 302, 303, 304, 305, 306, 307, 308, 309, 310, 311, 312, 313, 314, 315, 316, 317, 318, 319, 320, 321, 322, 323, 324, 325, 326, 327, 328, 329, 330, 331, 332, 333, 334, 335, 336, 337, 338, 339, 340, 341, 342, 343, 344, 345, 346, 347, 348, 349, 350, 351, 352, 353, 354, 355, 356, 357],
      "AcquisitionTime": ["185344.242500", "185345.750000", "185347.255000", "185348.762500", "185350.267500", "185351.775000", "185353.280000", "185354.785000", "185356.292500", "185357.797500", "185359.305000", "185400.810000", "185402.315000", "185403.822500", "185405.327500", "185406.835000", "185408.340000", "185409.845000", "185411.352500", "185412.857500", "185414.365000", "185415.870000", "185417.375000", "185418.882500", "185420.387500", "185421.895000", "185423.400000", "185424.907500", "185426.412500", "185427.917500", "185429.425000", "185430.930000", "185432.437500", "185433.942500", "185435.447500", "185436.955000", "185438.460000", "185439.967500", "185441.472500", "185442.977500", "185444.485000", "185445.990000", "185447.497500", "185449.002500", "185450.507500", "185452.015000", "185453.520000", "185455.027500", "185456.532500", "185458.040000", "185459.545000", "185501.050000", "185502.557500", "185504.062500", "185505.570000", "185507.075000", "185508.580000", "185510.087500", "185511.592500", "185513.100000", "185514.605000", "185516.110000", "185517.617500", "185519.122500", "185520.630000", "185522.135000", "185523.640000", "185525.147500", "185526.652500", "185528.160000", "185529.665000", "185531.172500", "185532.677500", "185534.182500", "185535.690000", "185537.195000", "185538.702500", "185540.207500", "185541.712500", "185543.220000", "185544.725000", "185546.232500", "185547.737500", "185549.242500", "185550.750000", "185552.255000", "185553.762500", "185555.267500", "185556.775000", "185558.280000", "185559.785000", "185601.292500", "185602.797500", "185604.305000", "185605.810000", "185607.315000", "185608.822500", "185610.327500", "185611.835000", "185613.340000", "185614.845000", "185616.352500", "185617.857500", "185619.365000", "185620.870000", "185622.375000", "185623.882500", "185625.387500", "185626.895000", "185628.400000", "185629.907500", "185631.412500", "185632.917500", "185634.425000", "185635.930000", "185637.437500", "185638.942500", "185640.447500", "185641.955000", "185643.460000", "185644.967500", "185646.472500", "185647.977500", "185649.485000", "185650.990000", "185652.497500", "185654.002500", "185655.507500", "185657.015000", "185658.520000", "185700.027500", "185701.532500", "185703.040000", "185704.545000", "185706.050000", "185707.557500", "185709.062500", "185710.570000", "185712.075000", "185713.580000", "185715.087500", "185716.592500", "185718.100000", "185719.605000", "185721.110000", "185722.617500", "185724.122500", "185725.630000", "185727.135000", "185728.640000", "185730.147500", "185731.652500", "185733.160000", "185734.665000", "185736.172500", "185737.677500", "185739.182500", "185740.690000", "185742.195000", "185743.702500", "185745.207500", "185746.712500", "185748.220000", "185749.725000", "185751.232500", "185752.737500", "185754.242500", "185755.750000", "185757.255000", "185758.762500", "185800.267500", "185801.775000", "185803.280000", "185804.785000", "185806.292500", "185807.797500", "185809.305000", "185810.810000", "185812.315000", "185813.822500", "185815.327500", "185816.835000", "185818.340000", "185819.845000", "185821.352500", "185822.857500", "185824.365000", "185825.870000", "185827.375000", "185828.882500", "185830.387500", "185831.895000", "185833.400000", "185834.907500", "185836.412500", "185837.917500", "185839.425000", "185840.930000", "185842.437500", "185843.942500", "185845.447500", "185846.955000", "185848.460000", "185849.967500", "185851.472500", "185852.977500", "185854.485000", "185855.990000", "185857.497500", "185859.002500", "185900.507500", "185902.015000", "185903.520000", "185905.027500", "185906.532500", "185908.040000", "185909.545000", "185911.050000", "185912.557500", "185914.062500", "185915.570000", "185917.075000", "185918.580000", "185920.087500", "185921.592500", "185923.100000", "185924.605000", "185926.110000", "185927.617500", "185929.122500", "185930.630000", "185932.135000", "185933.640000", "185935.147500", "185936.652500", "185938.160000", "185939.665000", "185941.172500", "185942.677500", "185944.182500", "185945.690000", "185947.195000", "185948.702500", "185950.207500", "185951.712500", "185953.220000", "185954.725000", "185956.232500", "185957.737500", "185959.242500", "190000.750000", "190002.255000", "190003.762500", "190005.267500", "190006.775000", "190008.280000", "190009.785000", "190011.292500", "190012.797500", "190014.305000", "190015.810000", "190017.315000", "190018.822500", "190020.327500", "190021.835000", "190023.340000", "190024.845000", "190026.352500", "190027.857500", "190029.365000", "190030.870000", "190032.375000", "190033.882500", "190035.387500", "190036.895000", "190038.400000", "190039.907500", "190041.412500", "190042.917500", "190044.425000", "190045.930000", "190047.437500", "190048.942500", "190050.447500", "190051.955000", "190053.460000", "190054.967500", "190056.472500", "190057.977500", "190059.485000", "190100.990000", "190102.497500", "190104.002500", "190105.507500", "190107.015000", "190108.520000", "190110.027500", "190111.532500", "190113.040000", "190114.545000", "190116.050000", "190117.557500", "190119.062500", "190120.570000", "190122.075000", "190123.580000", "190125.087500", "190126.592500", "190128.100000", "190129.605000", "190131.110000", "190132.617500", "190134.122500", "190135.630000", "190137.135000", "190138.640000", "190140.147500", "190141.652500", "190143.160000", "190144.665000", "190146.172500", "190147.677500", "190149.182500", "190150.690000", "190152.195000", "190153.702500", "190155.207500", "190156.712500", "190158.220000", "190159.725000", "190201.232500", "190202.737500", "190204.242500", "190205.750000", "190207.255000", "190208.762500", "190210.267500", "190211.775000", "190213.280000", "190214.785000", "190216.292500", "190217.797500", "190219.305000", "190220.810000", "190222.315000", "190223.822500", "190225.327500", "190226.835000", "190228.340000", "190229.845000", "190231.352500", "190232.857500", "190234.365000", "190235.870000", "190237.375000", "190238.882500", "190240.387500"],
      "ContentTime": ["185507.421000", "185507.437000", "185507.437000", "185507.437000", "185507.437000", "185507.437000", "185507.437000", "185507.453000", "185507.453000", "185507.453000", "185507.453000", "185507.453000", "185507.453000", "185507.453000", "185507.453000", "185507.468000", "185507.468000", "185507.468000", "185507.468000", "185507.484000", "185507.484000", "185507.484000", "185607.421000", "185607.421000", "185607.421000", "185607.421000", "185607.437000", "185607.437000", "185607.437000", "185607.437000", "185607.453000", "185607.453000", "185607.453000", "185607.453000", "185607.453000", "185607.453000", "185607.468000", "185607.468000", "185607.468000", "185607.468000", "185607.468000", "185607.468000", "185607.484000", "185607.484000", "185607.484000", "185607.484000", "185607.484000", "185607.484000", "185707.421000", "185707.421000", "185707.421000", "185707.421000", "185707.437000", "185707.437000", "185707.437000", "185707.437000", "185707.437000", "185707.437000", "185707.437000", "185707.437000", "185707.437000", "185707.453000", "185707.453000", "185707.453000", "185707.453000", "185707.453000", "185707.468000", "185707.468000", "185707.468000", "185707.484000", "185707.484000", "185707.484000", "185707.484000", "185707.484000", "185807.421000", "185807.421000", "185807.421000", "185807.421000", "185807.437000", "185807.437000", "185807.437000", "185807.437000", "185807.437000", "185807.437000", "185807.437000", "185807.437000", "185807.437000", "185807.453000", "185807.453000", "185807.453000", "185807.453000", "185807.453000", "185807.453000", "185807.453000", "185807.453000", "185807.453000", "185807.468000", "185807.468000", "185807.468000", "185807.468000", "185907.421000", "185907.421000", "185907.421000", "185907.421000", "185907.437000", "185907.437000", "185907.437000", "185907.437000", "185907.437000", "185907.437000", "185907.453000", "185907.453000", "185907.453000", "185907.453000", "185907.453000", "185907.453000", "185907.453000", "185907.453000", "185907.453000", "185907.468000", "185907.468000", "185907.468000", "185907.468000", "185907.468000", "185907.484000", "185907.484000", "185947.421000", "185947.421000", "185947.421000", "185947.421000", "185947.437000", "185947.437000", "185947.437000", "185947.437000", "185947.437000", "185947.437000", "185947.437000", "185947.437000", "185947.437000", "185947.453000", "185947.453000", "185947.453000", "185947.453000", "190047.421000", "190047.421000", "190047.421000", "190047.421000", "190047.437000", "190047.437000", "190047.437000", "190047.437000", "190047.437000", "190047.437000", "190047.437000", "190047.437000", "190047.437000", "190047.453000", "190047.453000", "190047.453000", "190047.453000", "190047.453000", "190047.468000", "190047.468000", "190047.468000", "190047.468000", "190047.468000", "190047.484000", "190047.484000", "190047.484000", "190047.484000", "190147.421000", "190147.421000", "190147.421000", "190147.421000", "190147.437000", "190147.437000", "190147.437000", "190147.437000", "190147.437000", "190147.437000", "190147.437000", "190147.437000", "190147.437000", "190147.453000", "190147.453000", "190147.453000", "190147.453000", "190147.453000", "190147.453000", "190147.453000", "190147.453000", "190147.453000", "190147.468000", "190147.468000", "190147.468000", "190147.468000", "190247.421000", "190247.421000", "190247.421000", "190247.421000", "190247.437000", "190247.437000", "190247.437000", "190247.437000", "190247.437000", "190247.437000", "190247.437000", "190247.437000", "190247.437000", "190247.453000", "190247.453000", "190247.453000", "190247.453000", "190247.453000", "190247.453000", "190247.453000", "190247.453000", "190247.453000", "190247.468000", "190247.468000", "190247.468000", "190247.468000", "190347.421000", "190347.421000", "190347.421000", "190347.421000", "190347.437000", "190347.437000", "190347.437000", "190347.437000", "190347.437000", "190347.437000", "190347.437000", "190347.437000", "190347.437000", "190347.453000", "190347.453000", "190347.453000", "190347.453000", "190347.453000", "190347.453000", "190347.453000", "190347.453000", "190347.453000", "190347.468000", "190347.468000", "190347.468000", "190347.468000", "190447.421000", "190447.421000", "190447.421000", "190447.421000", "190447.437000", "190447.437000", "190447.437000", "190447.453000", "190447.453000", "190447.453000", "190447.453000", "190447.453000", "190447.453000", "190447.453000", "190447.453000", "190447.453000", "190447.468000", "190447.468000", "190447.468000", "190447.468000", "190447.468000", "190447.468000", "190447.468000", "190447.468000", "190447.484000", "190447.484000", "190547.421000", "190547.421000", "190547.421000", "190547.421000", "190547.437000", "190547.437000", "190547.437000", "190547.437000", "190547.437000", "190547.437000", "190547.437000", "190547.437000", "190547.437000", "190547.453000", "190547.453000", "190547.453000", "190547.453000", "190547.453000", "190547.453000", "190547.453000", "190547.468000", "190547.468000", "190547.468000", "190547.468000", "190547.468000", "190547.468000", "190647.421000", "190647.421000", "190647.421000", "190647.421000", "190647.437000", "190647.437000", "190647.437000", "190647.437000", "190647.437000", "190647.453000", "190647.453000", "190647.453000", "190647.453000", "190647.453000", "190647.453000", "190647.468000", "190647.468000", "190647.468000", "190647.484000", "190647.484000", "190647.484000", "190647.484000", "190647.484000", "190647.500000", "190647.500000", "190647.500000", "190747.421000", "190747.421000", "190747.421000", "190747.421000", "190747.437000", "190747.437000", "190747.437000", "190747.437000", "190747.437000", "190747.453000", "190747.453000", "190747.453000", "190747.453000", "190747.453000", "190747.453000", "190747.453000", "190747.453000", "190747.453000", "190747.468000", "190747.468000", "190747.468000", "190747.468000", "190747.468000", "190747.484000", "190747.484000", "190747.484000", "190757.562000", "190757.578000", "190757.578000", "190757.578000", "190757.578000"],
      "DataSetTrailingPadding": [
        "\u0000\u0000\u0000\u0000\u0000\u0000\u0000\u0000\u0000\u0000\u0000\u0000\u0000\u0000\u0000\u0000\u0000\u0000\u0000\u0000\u0000\u0000\u0000\u0000\u0000\u0000\u0000\u0000\u0000\u0000\u0000\u0000\u0000\u0000\u0000\u0000\u0000\u0000\u0000\u0000\u0000\u0000\u0000\u0000\u0000\u0000\u0000\u0000\u0000\u0000\u0000\u0000\u0000\u0000\u0000\u0000\u0000\u0000\u0000\u0000\u0000\u0000\u0000\u0000\u0000\u0000\u0000\u0000\u0000\u0000\u0000\u0000\u0000\u0000\u0000\u0000\u0000\u0000\u0000\u0000\u0000\u0000\u0000\u0000\u0000\u0000\u0000\u0000\u0000\u0000\u0000\u0000\u0000\u0000\u0000\u0000\u0000\u0000\u0000\u0000\u0000\u0000\u0000\u0000\u0000\u0000\u0000\u0000\u0000\u0000\u0000\u0000\u0000\u0000\u0000\u0000\u0000\u0000\u0000\u0000\u0000\u0000\u0000\u0000\u0000\u0000\u0000\u0000\u0000\u0000\u0000\u0000\u0000\u0000\u0000\u0000\u0000\u0000\u0000\u0000\u0000\u0000\u0000\u0000\u0000\u0000\u0000\u0000\u0000\u0000\u0000\u0000\u0000\u0000\u0000\u0000\u0000\u0000\u0000\u0000\u0000\u0000\u0000\u0000\u0000\u0000\u0000\u0000\u0000\u0000\u0000\u0000\u0000\u0000\u0000\u0000\u0000\u0000\u0000\u0000\u0000\u0000\u0000\u0000\u0000\u0000",
        "\u0000\u0000\u0000\u0000\u0000\u0000\u0000\u0000\u0000\u0000\u0000\u0000\u0000\u0000\u0000\u0000\u0000\u0000\u0000\u0000\u0000\u0000\u0000\u0000\u0000\u0000\u0000\u0000\u0000\u0000\u0000\u0000\u0000\u0000\u0000\u0000\u0000\u0000\u0000\u0000\u0000\u0000\u0000\u0000\u0000\u0000\u0000\u0000\u0000\u0000\u0000\u0000\u0000\u0000\u0000\u0000\u0000\u0000\u0000\u0000\u0000\u0000\u0000\u0000\u0000\u0000\u0000\u0000\u0000\u0000\u0000\u0000\u0000\u0000\u0000\u0000\u0000\u0000\u0000\u0000\u0000\u0000\u0000\u0000\u0000\u0000\u0000\u0000\u0000\u0000\u0000\u0000\u0000\u0000\u0000\u0000\u0000\u0000\u0000\u0000\u0000\u0000\u0000\u0000\u0000\u0000\u0000\u0000\u0000\u0000\u0000\u0000\u0000\u0000\u0000\u0000\u0000\u0000\u0000\u0000\u0000\u0000\u0000\u0000\u0000\u0000\u0000\u0000\u0000\u0000\u0000\u0000\u0000\u0000\u0000\u0000\u0000\u0000\u0000\u0000\u0000\u0000\u0000\u0000\u0000\u0000\u0000\u0000\u0000\u0000\u0000\u0000\u0000\u0000\u0000\u0000\u0000\u0000\u0000\u0000\u0000\u0000\u0000\u0000\u0000\u0000\u0000\u0000\u0000\u0000\u0000\u0000\u0000\u0000\u0000\u0000\u0000\u0000\u0000\u0000\u0000\u0000\u0000\u0000\u0000\u0000",
        "\u0000\u0000\u0000\u0000\u0000\u0000\u0000\u0000\u0000\u0000\u0000\u0000\u0000\u0000\u0000\u0000\u0000\u0000\u0000\u0000\u0000\u0000\u0000\u0000\u0000\u0000\u0000\u0000\u0000\u0000\u0000\u0000\u0000\u0000\u0000\u0000\u0000\u0000\u0000\u0000\u0000\u0000\u0000\u0000\u0000\u0000\u0000\u0000\u0000\u0000\u0000\u0000\u0000\u0000\u0000\u0000\u0000\u0000\u0000\u0000\u0000\u0000\u0000\u0000\u0000\u0000\u0000\u0000\u0000\u0000\u0000\u0000\u0000\u0000\u0000\u0000\u0000\u0000\u0000\u0000\u0000\u0000\u0000\u0000\u0000\u0000\u0000\u0000\u0000\u0000\u0000\u0000\u0000\u0000\u0000\u0000\u0000\u0000\u0000\u0000\u0000\u0000\u0000\u0000\u0000\u0000\u0000\u0000\u0000\u0000\u0000\u0000\u0000\u0000\u0000\u0000\u0000\u0000\u0000\u0000\u0000\u0000\u0000\u0000\u0000\u0000\u0000\u0000\u0000\u0000\u0000\u0000\u0000\u0000\u0000\u0000\u0000\u0000\u0000\u0000\u0000\u0000\u0000\u0000\u0000\u0000\u0000\u0000\u0000\u0000\u0000\u0000\u0000\u0000\u0000\u0000\u0000\u0000\u0000\u0000\u0000\u0000\u0000\u0000\u0000\u0000\u0000\u0000\u0000\u0000\u0000\u0000\u0000\u0000\u0000\u0000\u0000\u0000\u0000\u0000\u0000\u0000\u0000\u0000",
        "\u0000\u0000\u0000\u0000\u0000\u0000\u0000\u0000\u0000\u0000\u0000\u0000\u0000\u0000\u0000\u0000\u0000\u0000\u0000\u0000\u0000\u0000\u0000\u0000\u0000\u0000\u0000\u0000\u0000\u0000\u0000\u0000\u0000\u0000\u0000\u0000\u0000\u0000\u0000\u0000\u0000\u0000\u0000\u0000\u0000\u0000\u0000\u0000\u0000\u0000\u0000\u0000\u0000\u0000\u0000\u0000\u0000\u0000\u0000\u0000\u0000\u0000\u0000\u0000\u0000\u0000\u0000\u0000\u0000\u0000\u0000\u0000\u0000\u0000\u0000\u0000\u0000\u0000\u0000\u0000\u0000\u0000\u0000\u0000\u0000\u0000\u0000\u0000\u0000\u0000\u0000\u0000\u0000\u0000\u0000\u0000\u0000\u0000\u0000\u0000\u0000\u0000\u0000\u0000\u0000\u0000\u0000\u0000\u0000\u0000\u0000\u0000\u0000\u0000\u0000\u0000\u0000\u0000\u0000\u0000\u0000\u0000\u0000\u0000\u0000\u0000\u0000\u0000\u0000\u0000\u0000\u0000\u0000\u0000\u0000\u0000\u0000\u0000\u0000\u0000\u0000\u0000\u0000\u0000\u0000\u0000\u0000\u0000\u0000\u0000\u0000\u0000\u0000\u0000\u0000\u0000\u0000\u0000\u0000\u0000\u0000\u0000\u0000\u0000\u0000\u0000\u0000\u0000\u0000\u0000\u0000\u0000\u0000\u0000\u0000\u0000\u0000\u0000\u0000\u0000\u0000\u0000\u0000\u0000",
        "\u0000\u0000\u0000\u0000\u0000\u0000\u0000\u0000\u0000\u0000\u0000\u0000\u0000\u0000\u0000\u0000\u0000\u0000\u0000\u0000\u0000\u0000\u0000\u0000\u0000\u0000\u0000\u0000\u0000\u0000\u0000\u0000\u0000\u0000\u0000\u0000\u0000\u0000\u0000\u0000\u0000\u0000\u0000\u0000\u0000\u0000\u0000\u0000\u0000\u0000\u0000\u0000\u0000\u0000\u0000\u0000\u0000\u0000\u0000\u0000\u0000\u0000\u0000\u0000\u0000\u0000\u0000\u0000\u0000\u0000\u0000\u0000\u0000\u0000\u0000\u0000\u0000\u0000\u0000\u0000\u0000\u0000\u0000\u0000\u0000\u0000\u0000\u0000\u0000\u0000\u0000\u0000\u0000\u0000\u0000\u0000\u0000\u0000\u0000\u0000\u0000\u0000\u0000\u0000\u0000\u0000\u0000\u0000\u0000\u0000\u0000\u0000\u0000\u0000\u0000\u0000\u0000\u0000\u0000\u0000\u0000\u0000\u0000\u0000\u0000\u0000\u0000\u0000\u0000\u0000\u0000\u0000\u0000\u0000\u0000\u0000\u0000\u0000\u0000\u0000\u0000\u0000\u0000\u0000\u0000\u0000\u0000\u0000\u0000\u0000\u0000\u0000\u0000\u0000\u0000\u0000\u0000\u0000\u0000\u0000\u0000\u0000\u0000\u0000\u0000\u0000\u0000\u0000\u0000\u0000\u0000\u0000\u0000\u0000\u0000\u0000\u0000\u0000\u0000\u0000\u0000\u0000\u0000\u0000\u0000\u0000",
        "\u0000\u0000\u0000\u0000\u0000\u0000\u0000\u0000\u0000\u0000\u0000\u0000\u0000\u0000\u0000\u0000\u0000\u0000\u0000\u0000\u0000\u0000\u0000\u0000\u0000\u0000\u0000\u0000\u0000\u0000\u0000\u0000\u0000\u0000\u0000\u0000\u0000\u0000\u0000\u0000\u0000\u0000\u0000\u0000\u0000\u0000\u0000\u0000\u0000\u0000\u0000\u0000\u0000\u0000\u0000\u0000\u0000\u0000\u0000\u0000\u0000\u0000\u0000\u0000\u0000\u0000\u0000\u0000\u0000\u0000\u0000\u0000\u0000\u0000\u0000\u0000\u0000\u0000\u0000\u0000\u0000\u0000\u0000\u0000\u0000\u0000\u0000\u0000\u0000\u0000\u0000\u0000\u0000\u0000\u0000\u0000\u0000\u0000\u0000\u0000\u0000\u0000\u0000\u0000\u0000\u0000\u0000\u0000\u0000\u0000\u0000\u0000\u0000\u0000\u0000\u0000\u0000\u0000\u0000\u0000\u0000\u0000\u0000\u0000\u0000\u0000\u0000\u0000\u0000\u0000\u0000\u0000\u0000\u0000\u0000\u0000\u0000\u0000\u0000\u0000\u0000\u0000\u0000\u0000\u0000\u0000\u0000\u0000\u0000\u0000\u0000\u0000\u0000\u0000\u0000\u0000\u0000\u0000\u0000\u0000\u0000\u0000\u0000\u0000\u0000\u0000\u0000\u0000\u0000\u0000\u0000\u0000\u0000\u0000\u0000\u0000\u0000\u0000\u0000\u0000\u0000\u0000\u0000\u0000\u0000\u0000\u0000\u0000",
        "\u0000\u0000\u0000\u0000\u0000\u0000\u0000\u0000\u0000\u0000\u0000\u0000\u0000\u0000\u0000\u0000\u0000\u0000\u0000\u0000\u0000\u0000\u0000\u0000\u0000\u0000\u0000\u0000\u0000\u0000\u0000\u0000\u0000\u0000\u0000\u0000\u0000\u0000\u0000\u0000\u0000\u0000\u0000\u0000\u0000\u0000\u0000\u0000\u0000\u0000\u0000\u0000\u0000\u0000\u0000\u0000\u0000\u0000\u0000\u0000\u0000\u0000\u0000\u0000\u0000\u0000\u0000\u0000\u0000\u0000\u0000\u0000\u0000\u0000\u0000\u0000\u0000\u0000\u0000\u0000\u0000\u0000\u0000\u0000\u0000\u0000\u0000\u0000\u0000\u0000\u0000\u0000\u0000\u0000\u0000\u0000\u0000\u0000\u0000\u0000\u0000\u0000\u0000\u0000\u0000\u0000\u0000\u0000\u0000\u0000\u0000\u0000\u0000\u0000\u0000\u0000\u0000\u0000\u0000\u0000\u0000\u0000\u0000\u0000\u0000\u0000\u0000\u0000\u0000\u0000\u0000\u0000\u0000\u0000\u0000\u0000\u0000\u0000\u0000\u0000\u0000\u0000\u0000\u0000\u0000\u0000\u0000\u0000\u0000\u0000\u0000\u0000\u0000\u0000\u0000\u0000\u0000\u0000\u0000\u0000\u0000\u0000\u0000\u0000\u0000\u0000\u0000\u0000\u0000\u0000\u0000\u0000\u0000\u0000\u0000\u0000\u0000\u0000\u0000\u0000\u0000\u0000\u0000\u0000",
        "\u0000\u0000\u0000\u0000\u0000\u0000\u0000\u0000\u0000\u0000\u0000\u0000\u0000\u0000\u0000\u0000\u0000\u0000\u0000\u0000\u0000\u0000\u0000\u0000\u0000\u0000\u0000\u0000\u0000\u0000\u0000\u0000\u0000\u0000\u0000\u0000\u0000\u0000\u0000\u0000\u0000\u0000\u0000\u0000\u0000\u0000\u0000\u0000\u0000\u0000\u0000\u0000\u0000\u0000\u0000\u0000\u0000\u0000\u0000\u0000\u0000\u0000\u0000\u0000\u0000\u0000\u0000\u0000\u0000\u0000\u0000\u0000\u0000\u0000\u0000\u0000\u0000\u0000\u0000\u0000\u0000\u0000\u0000\u0000\u0000\u0000\u0000\u0000\u0000\u0000\u0000\u0000\u0000\u0000\u0000\u0000\u0000\u0000\u0000\u0000\u0000\u0000\u0000\u0000\u0000\u0000\u0000\u0000\u0000\u0000\u0000\u0000\u0000\u0000\u0000\u0000\u0000\u0000\u0000\u0000\u0000\u0000\u0000\u0000\u0000\u0000\u0000\u0000\u0000\u0000\u0000\u0000\u0000\u0000\u0000\u0000\u0000\u0000\u0000\u0000\u0000\u0000\u0000\u0000\u0000\u0000\u0000\u0000\u0000\u0000\u0000\u0000\u0000\u0000\u0000\u0000\u0000\u0000\u0000\u0000\u0000\u0000\u0000\u0000\u0000\u0000\u0000\u0000\u0000\u0000\u0000\u0000\u0000\u0000\u0000\u0000\u0000\u0000\u0000\u0000\u0000\u0000\u0000\u0000",
        "\u0000\u0000\u0000\u0000\u0000\u0000\u0000\u0000\u0000\u0000\u0000\u0000\u0000\u0000\u0000\u0000\u0000\u0000\u0000\u0000\u0000\u0000\u0000\u0000\u0000\u0000\u0000\u0000\u0000\u0000\u0000\u0000\u0000\u0000\u0000\u0000\u0000\u0000\u0000\u0000\u0000\u0000\u0000\u0000\u0000\u0000\u0000\u0000\u0000\u0000\u0000\u0000\u0000\u0000\u0000\u0000\u0000\u0000\u0000\u0000\u0000\u0000\u0000\u0000\u0000\u0000\u0000\u0000\u0000\u0000\u0000\u0000\u0000\u0000\u0000\u0000\u0000\u0000\u0000\u0000\u0000\u0000\u0000\u0000\u0000\u0000\u0000\u0000\u0000\u0000\u0000\u0000\u0000\u0000\u0000\u0000\u0000\u0000\u0000\u0000\u0000\u0000\u0000\u0000\u0000\u0000\u0000\u0000\u0000\u0000\u0000\u0000\u0000\u0000\u0000\u0000\u0000\u0000\u0000\u0000\u0000\u0000\u0000\u0000\u0000\u0000\u0000\u0000\u0000\u0000\u0000\u0000\u0000\u0000\u0000\u0000\u0000\u0000\u0000\u0000\u0000\u0000\u0000\u0000\u0000\u0000\u0000\u0000\u0000\u0000\u0000\u0000\u0000\u0000\u0000\u0000\u0000\u0000\u0000\u0000\u0000\u0000\u0000\u0000\u0000\u0000\u0000\u0000\u0000\u0000\u0000\u0000\u0000\u0000\u0000\u0000\u0000\u0000\u0000\u0000\u0000\u0000\u0000\u0000",
