{
  "AcquisitionMatrixPE": 110,
  "AcquisitionNumber": 1,
  "AcquisitionTime": "17:59:54.285000",
  "BandwidthPerPixelPhaseEncode": 26.35,
  "BaseResolution": 110,
  "CoilString": "C:HEA;HEP",
  "ConversionSoftware": "dcm2niix",
  "ConversionSoftwareVersion": "v1.0.20190410  GCC6.3.0",
  "DerivedVendorReportedEchoSpacing": 0.000690012,
  "DeviceSerialNumber": "35422",
  "DwellTime": 2.6e-06,
  "EchoTime": 0.03,
  "EffectiveEchoSpacing": 0.000345006,
  "FlipAngle": 85,
  "ImageComments": "Unaliased_MB4_PE4_LB",
  "ImageOrientationPatientDICOM": [0.999997, -0.000466488, -0.00236537, 1.86122e-10, 0.981103, -0.193489],
  "ImageType": [
    "ORIGINAL",
    "PRIMARY",
    "FMRI",
    "NONE",
    "MB",
    "ND",
    "MOSAIC"
],
  "ImagingFrequency": 123.177,
  "InPlanePhaseEncodingDirectionDICOM": "ROW",
  "InstitutionAddress": "kwanakro_599_C4F276_Seoul_KR_ZIP",
  "InstitutionName": "SNUBIC",
  "InstitutionalDepartmentName": "Department",
  "MRAcquisitionType": "2D",
  "MagneticFieldStrength": 3,
  "Manufacturer": "Siemens",
  "ManufacturersModelName": "TrioTim",
  "Modality": "MR",
  "MultibandAccelerationFactor": 4,
  "ParallelReductionFactorInPlane": 2,
  "PartialFourier": 1,
  "PatientPosition": "HFS",
  "PercentPhaseFOV": 100,
  "PhaseEncodingDirection": "i-",
  "PhaseEncodingSteps": 110,
  "PhaseResolution": 1,
  "PixelBandwidth": 1748,
  "ProcedureStepDescription": "SNU_SAVED",
  "ProtocolName": "WMGNG2_MB4_LR_SBRef",
  "PulseSequenceDetails": "%CustomerSeq%_cmrr_mbep2d_bold",
  "ReceiveCoilName": "32Ch_Head",
  "ReconMatrixPE": 110,
  "RefLinesPE": 32,
  "RepetitionTime": 1.5,
  "SAR": 0.137773,
  "ScanOptions": "FS",
  "ScanningSequence": "EP",
  "SequenceName": "epfid2d1_110",
  "SequenceVariant": "SK_SS",
  "SeriesDescription": "WMGNG2_MB4_LR_SBRef",
  "SeriesNumber": 18,
  "ShimSetting": [-4185, -29723, -2070, 762, -225, 699, -49, -56],
  "SliceThickness": 2.3,
  "SliceTiming": [0, 0.6575, 1.3175, 0.47, 1.13, 0.2825, 0.94, 0.0925, 0.7525, 1.41, 0.565, 1.2225, 0.375, 1.035, 0.1875, 0.8475, 0, 0.6575, 1.3175, 0.47, 1.13, 0.2825, 0.94, 0.0925, 0.7525, 1.41, 0.565, 1.2225, 0.375, 1.035, 0.1875, 0.8475, 0, 0.6575, 1.3175, 0.47, 1.13, 0.2825, 0.94, 0.0925, 0.7525, 1.41, 0.565, 1.2225, 0.375, 1.035, 0.1875, 0.8475, 0, 0.6575, 1.3175, 0.47, 1.13, 0.2825, 0.94, 0.0925, 0.7525, 1.41, 0.565, 1.2225, 0.375, 1.035, 0.1875, 0.8475],
  "SoftwareVersions": "syngo_MR_B17",
  "SpacingBetweenSlices": 2.3,
  "StationName": "MRC35422",
  "TaskName": "wmgng",
  "TotalReadoutTime": 0.0376057,
  "TxRefAmp": 326.573,
  "dcmmeta_affine": [
    [-2.327265977859497, 4.33155955548159e-10, -0.005545143038034439, 130.27899169921875],
    [0.001085644937120378, 2.2832930088043213, -0.4450225532054901, -106.07582092285156],
    [-0.005504863802343607, 0.45030081272125244, 2.2565290927886963, -76.74498748779297],
    [0.0, 0.0, 0.0, 1.0]
],
  "dcmmeta_reorient_transform": [
    [0.0, -1.0, 0.0, 109.0],
    [1.0, 0.0, 0.0, 0.0],
    [0.0, 0.0, 1.0, 0.0],
    [0.0, 0.0, 0.0, 1.0]
],
  "dcmmeta_shape": [110, 110, 64, 357],
  "dcmmeta_slice_dim": 2,
  "dcmmeta_version": 0.6,
  "global": {
    "const": {
      "AcquisitionMatrix": [0, 110, 110, 0],
      "AngioFlag": "N",
      "BitsAllocated": 16,
      "BitsStored": 12,
      "Columns": 880,
      "EchoNumbers": 1,
      "EchoTime": 30.0,
      "EchoTrainLength": 1,
      "FlipAngle": 85.0,
      "HighBit": 11,
      "ImageOrientationPatient": [0.99999709369987, -0.0004664880634, -0.0023653711528, 1.861217e-10, 0.98110251732681, -0.193488631436],
      "ImagePositionPatient": [-1026.276360115, -1021.4529756544, 147.8229783234],
      "ImageType": [
        "ORIGINAL",
        "PRIMARY",
        "FMRI",
        "NONE",
        "MB",
        "ND",
        "MOSAIC"
],
      "ImagedNucleus": "1H",
      "ImagingFrequency": 123.177473,
      "InPlanePhaseEncodingDirection": "ROW",
      "MRAcquisitionType": "2D",
      "MagneticFieldStrength": 3.0,
      "Manufacturer": "SIEMENS",
      "ManufacturerModelName": "TrioTim",
      "Modality": "MR",
      "NumberOfAverages": 1.0,
      "NumberOfPhaseEncodingSteps": 110,
      "PercentPhaseFieldOfView": 100.0,
      "PercentSampling": 100.0,
      "PerformedProcedureStepStartTime": "171351.546000",
      "PhotometricInterpretation": "MONOCHROME2",
      "PixelBandwidth": 1748.0,
      "PixelRepresentation": 0,
      "PixelSpacing": [2.3272726535797, 2.3272726535797],
      "ProtocolName": "WMGNG2_MB4_LR_SBRef",
      "ReferencedPerformedProcedureStepSequence": [
        {
          "ReferencedSOPClassUID": "1.2.840.10008.3.1.2.3.3",
          "ReferencedSOPInstanceUID": "1.3.12.2.1107.5.2.32.35422.30000020010306472709300000001"}
],
      "RepetitionTime": 1500.0,
      "Rows": 880,
      "SAR": 0.13777348099404,
      "SamplesPerPixel": 1,
      "ScanOptions": "FS",
      "ScanningSequence": "EP",
      "SequenceName": "epfid2d1_110",
      "SequenceVariant": [
        "SK",
        "SS"
],
      "SeriesDescription": "WMGNG2_MB4_LR_SBRef",
      "SeriesNumber": 18,
      "SeriesTime": "181132.046000",
      "SliceLocation": -55.084171522528,
      "SliceThickness": 2.2999999523163,
      "SmallestImagePixelValue": 0,
      "SoftwareVersions": "syngo MR B17",
      "SpacingBetweenSlices": 2.2999999553559,
      "SpecificCharacterSet": "ISO_IR 100",
      "StudyID": "1",
      "StudyTime": "171351.484000",
      "TransmitCoilName": "Body",
      "VariableFlipAngleFlag": "N",
      "WindowCenterWidthExplanation": "Algo1",
      "dBdt": 0.0},
    "slices": {}
  },
  "time": {
    "samples": {
      "AcquisitionNumber": [1, 2, 3, 4, 5, 6, 7, 8, 9, 10, 11, 12, 13, 14, 15, 16, 17, 18, 19, 20, 21, 22, 23, 24, 25, 26, 27, 28, 29, 30, 31, 32, 33, 34, 35, 36, 37, 38, 39, 40, 41, 42, 43, 44, 45, 46, 47, 48, 49, 50, 51, 52, 53, 54, 55, 56, 57, 58, 59, 60, 61, 62, 63, 64, 65, 66, 67, 68, 69, 70, 71, 72, 73, 74, 75, 76, 77, 78, 79, 80, 81, 82, 83, 84, 85, 86, 87, 88, 89, 90, 91, 92, 93, 94, 95, 96, 97, 98, 99, 100, 101, 102, 103, 104, 105, 106, 107, 108, 109, 110, 111, 112, 113, 114, 115, 116, 117, 118, 119, 120, 121, 122, 123, 124, 125, 126, 127, 128, 129, 130, 131, 132, 133, 134, 135, 136, 137, 138, 139, 140, 141, 142, 143, 144, 145, 146, 147, 148, 149, 150, 151, 152, 153, 154, 155, 156, 157, 158, 159, 160, 161, 162, 163, 164, 165, 166, 167, 168, 169, 170, 171, 172, 173, 174, 175, 176, 177, 178, 179, 180, 181, 182, 183, 184, 185, 186, 187, 188, 189, 190, 191, 192, 193, 194, 195, 196, 197, 198, 199, 200, 201, 202, 203, 204, 205, 206, 207, 208, 209, 210, 211, 212, 213, 214, 215, 216, 217, 218, 219, 220, 221, 222, 223, 224, 225, 226, 227, 228, 229, 230, 231, 232, 233, 234, 235, 236, 237, 238, 239, 240, 241, 242, 243, 244, 245, 246, 247, 248, 249, 250, 251, 252, 253, 254, 255, 256, 257, 258, 259, 260, 261, 262, 263, 264, 265, 266, 267, 268, 269, 270, 271, 272, 273, 274, 275, 276, 277, 278, 279, 280, 281, 282, 283, 284, 285, 286, 287, 288, 289, 290, 291, 292, 293, 294, 295, 296, 297, 298, 299, 300, 301, 302, 303, 304, 305, 306, 307, 308, 309, 310, 311, 312, 313, 314, 315, 316, 317, 318, 319, 320, 321, 322, 323, 324, 325, 326, 327, 328, 329, 330, 331, 332, 333, 334, 335, 336, 337, 338, 339, 340, 341, 342, 343, 344, 345, 346, 347, 348, 349, 350, 351, 352, 353, 354, 355, 356, 357],
      "AcquisitionTime": ["175954.285000", "175955.790000", "175957.297500", "175958.802500", "180000.307500", "180001.815000", "180003.320000", "180004.827500", "180006.332500", "180007.840000", "180009.345000", "180010.850000", "180012.357500", "180013.862500", "180015.370000", "180016.875000", "180018.380000", "180019.887500", "180021.392500", "180022.900000", "180024.405000", "180025.910000", "180027.417500", "180028.922500", "180030.430000", "180031.935000", "180033.442500", "180034.947500", "180036.452500", "180037.960000", "180039.465000", "180040.972500", "180042.477500", "180043.982500", "180045.490000", "180046.995000", "180048.502500", "180050.007500", "180051.512500", "180053.020000", "180054.525000", "180056.032500", "180057.537500", "180059.042500", "180100.550000", "180102.055000", "180103.562500", "180105.067500", "180106.575000", "180108.080000", "180109.585000", "180111.092500", "180112.597500", "180114.105000", "180115.610000", "180117.115000", "180118.622500", "180120.127500", "180121.635000", "180123.140000", "180124.645000", "180126.152500", "180127.657500", "180129.165000", "180130.670000", "180132.175000", "180133.682500", "180135.187500", "180136.695000", "180138.200000", "180139.707500", "180141.212500", "180142.717500", "180144.225000", "180145.730000", "180147.237500", "180148.742500", "180150.247500", "180151.755000", "180153.260000", "180154.767500", "180156.272500", "180157.777500", "180159.285000", "180200.790000", "180202.297500", "180203.802500", "180205.307500", "180206.815000", "180208.320000", "180209.827500", "180211.332500", "180212.840000", "180214.345000", "180215.850000", "180217.357500", "180218.862500", "180220.370000", "180221.875000", "180223.380000", "180224.887500", "180226.392500", "180227.900000", "180229.405000", "180230.910000", "180232.417500", "180233.922500", "180235.430000", "180236.935000", "180238.442500", "180239.947500", "180241.452500", "180242.960000", "180244.465000", "180245.972500", "180247.477500", "180248.982500", "180250.490000", "180251.995000", "180253.502500", "180255.007500", "180256.512500", "180258.020000", "180259.525000", "180301.032500", "180302.537500", "180304.042500", "180305.550000", "180307.055000", "180308.562500", "180310.067500", "180311.575000", "180313.080000", "180314.585000", "180316.092500", "180317.597500", "180319.105000", "180320.610000", "180322.115000", "180323.622500", "180325.127500", "180326.635000", "180328.140000", "180329.645000", "180331.152500", "180332.657500", "180334.165000", "180335.670000", "180337.175000", "180338.682500", "180340.187500", "180341.695000", "180343.200000", "180344.707500", "180346.212500", "180347.717500", "180349.225000", "180350.730000", "180352.237500", "180353.742500", "180355.247500", "180356.755000", "180358.260000", "180359.767500", "180401.272500", "180402.777500", "180404.285000", "180405.790000", "180407.297500", "180408.802500", "180410.307500", "180411.815000", "180413.320000", "180414.827500", "180416.332500", "180417.840000", "180419.345000", "180420.850000", "180422.357500", "180423.862500", "180425.370000", "180426.875000", "180428.380000", "180429.887500", "180431.392500", "180432.900000", "180434.405000", "180435.910000", "180437.417500", "180438.922500", "180440.430000", "180441.935000", "180443.442500", "180444.947500", "180446.452500", "180447.960000", "180449.465000", "180450.972500", "180452.477500", "180453.982500", "180455.490000", "180456.995000", "180458.502500", "180500.007500", "180501.512500", "180503.020000", "180504.525000", "180506.032500", "180507.537500", "180509.042500", "180510.550000", "180512.055000", "180513.562500", "180515.067500", "180516.575000", "180518.080000", "180519.585000", "180521.092500", "180522.597500", "180524.105000", "180525.610000", "180527.115000", "180528.622500", "180530.127500", "180531.635000", "180533.140000", "180534.645000", "180536.152500", "180537.657500", "180539.165000", "180540.670000", "180542.175000", "180543.682500", "180545.187500", "180546.695000", "180548.200000", "180549.707500", "180551.212500", "180552.717500", "180554.225000", "180555.730000", "180557.237500", "180558.742500", "180600.247500", "180601.755000", "180603.260000", "180604.767500", "180606.272500", "180607.777500", "180609.285000", "180610.790000", "180612.297500", "180613.802500", "180615.307500", "180616.815000", "180618.320000", "180619.827500", "180621.332500", "180622.840000", "180624.345000", "180625.850000", "180627.357500", "180628.862500", "180630.370000", "180631.875000", "180633.380000", "180634.887500", "180636.392500", "180637.900000", "180639.405000", "180640.910000", "180642.417500", "180643.922500", "180645.430000", "180646.935000", "180648.442500", "180649.947500", "180651.452500", "180652.960000", "180654.465000", "180655.972500", "180657.477500", "180658.982500", "180700.490000", "180701.995000", "180703.502500", "180705.007500", "180706.512500", "180708.020000", "180709.525000", "180711.032500", "180712.537500", "180714.042500", "180715.550000", "180717.055000", "180718.562500", "180720.067500", "180721.575000", "180723.080000", "180724.585000", "180726.092500", "180727.597500", "180729.105000", "180730.610000", "180732.115000", "180733.622500", "180735.127500", "180736.635000", "180738.140000", "180739.645000", "180741.152500", "180742.657500", "180744.165000", "180745.670000", "180747.175000", "180748.682500", "180750.187500", "180751.695000", "180753.200000", "180754.707500", "180756.212500", "180757.717500", "180759.225000", "180800.730000", "180802.237500", "180803.742500", "180805.247500", "180806.755000", "180808.260000", "180809.767500", "180811.272500", "180812.777500", "180814.285000", "180815.790000", "180817.297500", "180818.802500", "180820.307500", "180821.815000", "180823.320000", "180824.827500", "180826.332500", "180827.840000", "180829.345000", "180830.850000", "180832.357500", "180833.862500", "180835.370000", "180836.875000", "180838.380000", "180839.887500", "180841.392500", "180842.900000", "180844.405000", "180845.910000", "180847.417500", "180848.922500", "180850.430000"],
      "ContentTime": ["181132.046000", "181132.046000", "181132.046000", "181132.046000", "181232.046000", "181232.046000", "181232.062000", "181232.062000", "181232.062000", "181232.062000", "181232.062000", "181232.062000", "181232.062000", "181232.062000", "181232.062000", "181232.078000", "181232.078000", "181232.078000", "181232.078000", "181232.078000", "181232.093000", "181232.093000", "181232.093000", "181232.093000", "181232.093000", "181232.093000", "181232.093000", "181232.093000", "181232.093000", "181232.109000", "181332.046000", "181332.046000", "181332.046000", "181332.046000", "181332.046000", "181332.062000", "181332.062000", "181332.062000", "181332.062000", "181332.062000", "181332.062000", "181332.062000", "181332.062000", "181332.078000", "181332.078000", "181332.078000", "181332.078000", "181332.078000", "181332.078000", "181332.078000", "181332.078000", "181332.078000", "181332.093000", "181332.093000", "181332.093000", "181332.093000", "181332.093000", "181432.046000", "181432.046000", "181432.046000", "181432.046000", "181432.046000", "181432.046000", "181432.062000", "181432.062000", "181432.062000", "181432.062000", "181432.062000", "181432.062000", "181432.062000", "181432.062000", "181432.062000", "181432.078000", "181432.078000", "181432.078000", "181432.078000", "181432.093000", "181432.093000", "181432.093000", "181432.093000", "181432.093000", "181432.093000", "181432.093000", "181532.046000", "181532.046000", "181532.046000", "181532.046000", "181532.046000", "181532.046000", "181532.062000", "181532.062000", "181532.062000", "181532.062000", "181532.062000", "181532.062000", "181532.062000", "181532.062000", "181532.078000", "181532.078000", "181532.078000", "181532.078000", "181532.078000", "181532.093000", "181532.093000", "181532.093000", "181532.093000", "181532.093000", "181532.093000", "181632.046000", "181632.046000", "181632.046000", "181632.046000", "181632.062000", "181632.062000", "181632.062000", "181632.062000", "181632.062000", "181632.062000", "181632.062000", "181632.078000", "181632.078000", "181632.078000", "181632.078000", "181632.078000", "181632.078000", "181632.093000", "181632.093000", "181632.093000", "181632.093000", "181632.109000", "181632.109000", "181632.109000", "181632.109000", "181632.109000", "181632.109000", "181732.046000", "181732.046000", "181732.062000", "181732.062000", "181732.062000", "181732.062000", "181732.062000", "181732.078000", "181732.078000", "181732.078000", "181732.078000", "181732.078000", "181732.078000", "181732.078000", "181732.078000", "181732.078000", "181732.093000", "181732.093000", "181732.093000", "181732.093000", "181732.093000", "181732.093000", "181732.093000", "181732.109000", "181732.109000", "181732.109000", "181832.046000", "181832.046000", "181832.046000", "181832.046000", "181832.046000", "181832.046000", "181832.062000", "181832.062000", "181832.062000", "181832.062000", "181832.062000", "181832.062000", "181832.062000", "181832.078000", "181832.078000", "181832.078000", "181832.078000", "181832.078000", "181832.078000", "181832.078000", "181832.078000", "181832.078000", "181832.093000", "181832.093000", "181832.093000", "181832.093000", "181932.046000", "181932.046000", "181932.046000", "181932.046000", "181932.046000", "181932.046000", "181932.062000", "181932.062000", "181932.062000", "181932.062000", "181932.062000", "181932.062000", "181932.078000", "181932.078000", "181932.078000", "181932.078000", "181932.078000", "181932.078000", "181932.078000", "181932.093000", "181932.093000", "181932.093000", "181932.093000", "181932.093000", "181932.093000", "181932.093000", "182032.046000", "182032.046000", "182032.046000", "182032.046000", "182032.046000", "182032.046000", "182032.062000", "182032.062000", "182032.062000", "182032.062000", "182032.062000", "182032.062000", "182032.062000", "182032.062000", "182032.062000", "182032.078000", "182032.078000", "182032.078000", "182032.078000", "182032.078000", "182032.078000", "182032.093000", "182032.093000", "182032.093000", "182032.093000", "182032.109000", "182112.046000", "182112.046000", "182112.046000", "182112.046000", "182112.046000", "182112.046000", "182112.062000", "182112.062000", "182112.062000", "182112.062000", "182112.062000", "182112.062000", "182112.078000", "182112.078000", "182112.078000", "182112.078000", "182112.078000", "182212.046000", "182212.046000", "182212.046000", "182212.046000", "182212.062000", "182212.062000", "182212.062000", "182212.062000", "182212.062000", "182212.062000", "182212.062000", "182212.062000", "182212.062000", "182212.078000", "182212.078000", "182212.078000", "182212.078000", "182212.078000", "182212.078000", "182212.078000", "182212.078000", "182212.078000", "182212.093000", "182212.093000", "182212.093000", "182212.093000", "182312.046000", "182312.046000", "182312.046000", "182312.046000", "182312.062000", "182312.062000", "182312.062000", "182312.062000", "182312.062000", "182312.062000", "182312.062000", "182312.062000", "182312.062000", "182312.078000", "182312.078000", "182312.078000", "182312.078000", "182312.078000", "182312.078000", "182312.078000", "182312.093000", "182312.093000", "182312.093000", "182312.093000", "182312.093000", "182312.093000", "182412.046000", "182412.046000", "182412.046000", "182412.046000", "182412.046000", "182412.062000", "182412.062000", "182412.062000", "182412.062000", "182412.062000", "182412.062000", "182412.062000", "182412.062000", "182412.062000", "182412.078000", "182412.078000", "182412.078000", "182412.078000", "182412.078000", "182412.078000", "182412.093000", "182412.093000", "182412.093000", "182412.093000", "182412.093000", "182412.109000", "182412.109000", "182502.812000", "182502.812000", "182502.812000", "182502.812000", "182502.812000", "182502.812000", "182502.812000", "182502.812000", "182502.828000", "182502.828000", "182502.828000", "182502.828000", "182502.828000", "182502.828000", "182502.828000", "182502.828000", "182502.843000", "182502.843000", "182502.843000", "182502.843000", "182502.843000", "182502.843000"],
      "DataSetTrailingPadding": [
        "\u0000\u0000\u0000\u0000\u0000\u0000\u0000\u0000\u0000\u0000\u0000\u0000\u0000\u0000\u0000\u0000\u0000\u0000\u0000\u0000\u0000\u0000\u0000\u0000\u0000\u0000\u0000\u0000\u0000\u0000\u0000\u0000\u0000\u0000\u0000\u0000\u0000\u0000\u0000\u0000\u0000\u0000\u0000\u0000\u0000\u0000\u0000\u0000\u0000\u0000\u0000\u0000\u0000\u0000\u0000\u0000\u0000\u0000\u0000\u0000",
        "\u0000\u0000\u0000\u0000\u0000\u0000\u0000\u0000\u0000\u0000\u0000\u0000\u0000\u0000\u0000\u0000\u0000\u0000\u0000\u0000\u0000\u0000\u0000\u0000\u0000\u0000\u0000\u0000\u0000\u0000\u0000\u0000\u0000\u0000\u0000\u0000\u0000\u0000\u0000\u0000\u0000\u0000\u0000\u0000\u0000\u0000\u0000\u0000\u0000\u0000\u0000\u0000\u0000\u0000\u0000\u0000\u0000\u0000",
        "\u0000\u0000\u0000\u0000\u0000\u0000\u0000\u0000\u0000\u0000\u0000\u0000\u0000\u0000\u0000\u0000\u0000\u0000\u0000\u0000\u0000\u0000\u0000\u0000\u0000\u0000\u0000\u0000\u0000\u0000\u0000\u0000\u0000\u0000\u0000\u0000\u0000\u0000\u0000\u0000\u0000\u0000\u0000\u0000\u0000\u0000\u0000\u0000\u0000\u0000\u0000\u0000\u0000\u0000\u0000\u0000\u0000\u0000",
        "\u0000\u0000\u0000\u0000\u0000\u0000\u0000\u0000\u0000\u0000\u0000\u0000\u0000\u0000\u0000\u0000\u0000\u0000\u0000\u0000\u0000\u0000\u0000\u0000\u0000\u0000\u0000\u0000\u0000\u0000\u0000\u0000\u0000\u0000\u0000\u0000\u0000\u0000\u0000\u0000\u0000\u0000\u0000\u0000\u0000\u0000\u0000\u0000\u0000\u0000\u0000\u0000\u0000\u0000\u0000\u0000\u0000\u0000\u0000\u0000",
        "\u0000\u0000\u0000\u0000\u0000\u0000\u0000\u0000\u0000\u0000\u0000\u0000\u0000\u0000\u0000\u0000\u0000\u0000\u0000\u0000\u0000\u0000\u0000\u0000\u0000\u0000\u0000\u0000\u0000\u0000\u0000\u0000\u0000\u0000\u0000\u0000\u0000\u0000\u0000\u0000\u0000\u0000\u0000\u0000\u0000\u0000\u0000\u0000\u0000\u0000\u0000\u0000\u0000\u0000\u0000\u0000\u0000\u0000\u0000\u0000",
        "\u0000\u0000\u0000\u0000\u0000\u0000\u0000\u0000\u0000\u0000\u0000\u0000\u0000\u0000\u0000\u0000\u0000\u0000\u0000\u0000\u0000\u0000\u0000\u0000\u0000\u0000\u0000\u0000\u0000\u0000\u0000\u0000\u0000\u0000\u0000\u0000\u0000\u0000\u0000\u0000\u0000\u0000\u0000\u0000\u0000\u0000\u0000\u0000\u0000\u0000\u0000\u0000\u0000\u0000\u0000\u0000\u0000\u0000",
        "\u0000\u0000\u0000\u0000\u0000\u0000\u0000\u0000\u0000\u0000\u0000\u0000\u0000\u0000\u0000\u0000\u0000\u0000\u0000\u0000\u0000\u0000\u0000\u0000\u0000\u0000\u0000\u0000\u0000\u0000\u0000\u0000\u0000\u0000\u0000\u0000\u0000\u0000\u0000\u0000\u0000\u0000\u0000\u0000\u0000\u0000\u0000\u0000\u0000\u0000\u0000\u0000\u0000\u0000\u0000\u0000\u0000\u0000",
        "\u0000\u0000\u0000\u0000\u0000\u0000\u0000\u0000\u0000\u0000\u0000\u0000\u0000\u0000\u0000\u0000\u0000\u0000\u0000\u0000\u0000\u0000\u0000\u0000\u0000\u0000\u0000\u0000\u0000\u0000\u0000\u0000\u0000\u0000\u0000\u0000\u0000\u0000\u0000\u0000\u0000\u0000\u0000\u0000\u0000\u0000\u0000\u0000\u0000\u0000\u0000\u0000\u0000\u0000\u0000\u0000\u0000\u0000",
        "\u0000\u0000\u0000\u0000\u0000\u0000\u0000\u0000\u0000\u0000\u0000\u0000\u0000\u0000\u0000\u0000\u0000\u0000\u0000\u0000\u0000\u0000\u0000\u0000\u0000\u0000\u0000\u0000\u0000\u0000\u0000\u0000\u0000\u0000\u0000\u0000\u0000\u0000\u0000\u0000\u0000\u0000\u0000\u0000\u0000\u0000\u0000\u0000\u0000\u0000\u0000\u0000\u0000\u0000\u0000\u0000\u0000\u0000\u0000\u0000",
        "\u0000\u0000\u0000\u0000\u0000\u0000\u0000\u0000\u0000\u0000\u0000\u0000\u0000\u0000\u0000\u0000\u0000\u0000\u0000\u0000\u0000\u0000\u0000\u0000\u0000\u0000\u0000\u0000\u0000\u0000\u0000\u0000\u0000\u0000\u0000\u0000\u0000\u0000\u0000\u0000\u0000\u0000\u0000\u0000\u0000\u0000\u0000\u0000\u0000\u0000\u0000\u0000\u0000\u0000\u0000\u0000",
        "\u0000\u0000\u0000\u0000\u0000\u0000\u0000\u0000\u0000\u0000\u0000\u0000\u0000\u0000\u0000\u0000\u0000\u0000\u0000\u0000\u0000\u0000\u0000\u0000\u0000\u0000\u0000\u0000\u0000\u0000\u0000\u0000\u0000\u0000\u0000\u0000\u0000\u0000\u0000\u0000\u0000\u0000\u0000\u0000\u0000\u0000\u0000\u0000\u0000\u0000\u0000\u0000\u0000\u0000",
        "\u0000\u0000\u0000\u0000\u0000\u0000\u0000\u0000\u0000\u0000\u0000\u0000\u0000\u0000\u0000\u0000\u0000\u0000\u0000\u0000\u0000\u0000\u0000\u0000\u0000\u0000\u0000\u0000\u0000\u0000\u0000\u0000\u0000\u0000\u0000\u0000\u0000\u0000\u0000\u0000\u0000\u0000\u0000\u0000\u0000\u0000\u0000\u0000\u0000\u0000\u0000\u0000\u0000\u0000",
        "\u0000\u0000\u0000\u0000\u0000\u0000\u0000\u0000\u0000\u0000\u0000\u0000\u0000\u0000\u0000\u0000\u0000\u0000\u0000\u0000\u0000\u0000\u0000\u0000\u0000\u0000\u0000\u0000\u0000\u0000\u0000\u0000\u0000\u0000\u0000\u0000\u0000\u0000\u0000\u0000\u0000\u0000\u0000\u0000\u0000\u0000\u0000\u0000\u0000\u0000\u0000\u0000\u0000\u0000",
        "\u0000\u0000\u0000\u0000\u0000\u0000\u0000\u0000\u0000\u0000\u0000\u0000\u0000\u0000\u0000\u0000\u0000\u0000\u0000\u0000\u0000\u0000\u0000\u0000\u0000\u0000\u0000\u0000\u0000\u0000\u0000\u0000\u0000\u0000\u0000\u0000\u0000\u0000\u0000\u0000\u0000\u0000\u0000\u0000\u0000\u0000\u0000\u0000\u0000\u0000\u0000\u0000\u0000\u0000\u0000\u0000",
        "\u0000\u0000\u0000\u0000\u0000\u0000\u0000\u0000\u0000\u0000\u0000\u0000\u0000\u0000\u0000\u0000\u0000\u0000\u0000\u0000\u0000\u0000\u0000\u0000\u0000\u0000\u0000\u0000\u0000\u0000\u0000\u0000\u0000\u0000\u0000\u0000\u0000\u0000\u0000\u0000\u0000\u0000\u0000\u0000\u0000\u0000\u0000\u0000\u0000\u0000\u0000\u0000\u0000\u0000\u0000\u0000",
        "\u0000\u0000\u0000\u0000\u0000\u0000\u0000\u0000\u0000\u0000\u0000\u0000\u0000\u0000\u0000\u0000\u0000\u0000\u0000\u0000\u0000\u0000\u0000\u0000\u0000\u0000\u0000\u0000\u0000\u0000\u0000\u0000\u0000\u0000\u0000\u0000\u0000\u0000\u0000\u0000\u0000\u0000\u0000\u0000\u0000\u0000\u0000\u0000\u0000\u0000\u0000\u0000\u0000\u0000",
        "\u0000\u0000\u0000\u0000\u0000\u0000\u0000\u0000\u0000\u0000\u0000\u0000\u0000\u0000\u0000\u0000\u0000\u0000\u0000\u0000\u0000\u0000\u0000\u0000\u0000\u0000\u0000\u0000\u0000\u0000\u0000\u0000\u0000\u0000\u0000\u0000\u0000\u0000\u0000\u0000\u0000\u0000\u0000\u0000\u0000\u0000\u0000\u0000\u0000\u0000\u0000\u0000\u0000\u0000",
        "\u0000\u0000\u0000\u0000\u0000\u0000\u0000\u0000\u0000\u0000\u0000\u0000\u0000\u0000\u0000\u0000\u0000\u0000\u0000\u0000\u0000\u0000\u0000\u0000\u0000\u0000\u0000\u0000\u0000\u0000\u0000\u0000\u0000\u0000\u0000\u0000\u0000\u0000\u0000\u0000\u0000\u0000\u0000\u0000\u0000\u0000\u0000\u0000\u0000\u0000\u0000\u0000\u0000\u0000",
        "\u0000\u0000\u0000\u0000\u0000\u0000\u0000\u0000\u0000\u0000\u0000\u0000\u0000\u0000\u0000\u0000\u0000\u0000\u0000\u0000\u0000\u0000\u0000\u0000\u0000\u0000\u0000\u0000\u0000\u0000\u0000\u0000\u0000\u0000\u0000\u0000\u0000\u0000\u0000\u0000\u0000\u0000\u0000\u0000\u0000\u0000\u0000\u0000\u0000\u0000\u0000\u0000\u0000\u0000\u0000\u0000",
        "\u0000\u0000\u0000\u0000\u0000\u0000\u0000\u0000\u0000\u0000\u0000\u0000\u0000\u0000\u0000\u0000\u0000\u0000\u0000\u0000\u0000\u0000\u0000\u0000\u0000\u0000\u0000\u0000\u0000\u0000\u0000\u0000\u0000\u0000\u0000\u0000\u0000\u0000\u0000\u0000\u0000\u0000\u0000\u0000\u0000\u0000\u0000\u0000\u0000\u0000\u0000\u0000\u0000\u0000\u0000\u0000",
        "\u0000\u0000\u0000\u0000\u0000\u0000\u0000\u0000\u0000\u0000\u0000\u0000\u0000\u0000\u0000\u0000\u0000\u0000\u0000\u0000\u0000\u0000\u0000\u0000\u0000\u0000\u0000\u0000\u0000\u0000\u0000\u0000\u0000\u0000\u0000\u0000\u0000\u0000\u0000\u0000\u0000\u0000\u0000\u0000\u0000\u0000\u0000\u0000\u0000\u0000\u0000\u0000\u0000\u0000",
        "\u0000\u0000\u0000\u0000\u0000\u0000\u0000\u0000\u0000\u0000\u0000\u0000\u0000\u0000\u0000\u0000\u0000\u0000\u0000\u0000\u0000\u0000\u0000\u0000\u0000\u0000\u0000\u0000\u0000\u0000\u0000\u0000\u0000\u0000\u0000\u0000\u0000\u0000\u0000\u0000\u0000\u0000\u0000\u0000\u0000\u0000\u0000\u0000\u0000\u0000\u0000\u0000\u0000\u0000",
        "\u0000\u0000\u0000\u0000\u0000\u0000\u0000\u0000\u0000\u0000\u0000\u0000\u0000\u0000\u0000\u0000\u0000\u0000\u0000\u0000\u0000\u0000\u0000\u0000\u0000\u0000\u0000\u0000\u0000\u0000\u0000\u0000\u0000\u0000\u0000\u0000\u0000\u0000\u0000\u0000\u0000\u0000\u0000\u0000\u0000\u0000\u0000\u0000\u0000\u0000\u0000\u0000\u0000\u0000",
        "\u0000\u0000\u0000\u0000\u0000\u0000\u0000\u0000\u0000\u0000\u0000\u0000\u0000\u0000\u0000\u0000\u0000\u0000\u0000\u0000\u0000\u0000\u0000\u0000\u0000\u0000\u0000\u0000\u0000\u0000\u0000\u0000\u0000\u0000\u0000\u0000\u0000\u0000\u0000\u0000\u0000\u0000\u0000\u0000\u0000\u0000\u0000\u0000\u0000\u0000\u0000\u0000\u0000\u0000\u0000\u0000",
        "\u0000\u0000\u0000\u0000\u0000\u0000\u0000\u0000\u0000\u0000\u0000\u0000\u0000\u0000\u0000\u0000\u0000\u0000\u0000\u0000\u0000\u0000\u0000\u0000\u0000\u0000\u0000\u0000\u0000\u0000\u0000\u0000\u0000\u0000\u0000\u0000\u0000\u0000\u0000\u0000\u0000\u0000\u0000\u0000\u0000\u0000\u0000\u0000\u0000\u0000\u0000\u0000\u0000\u0000\u0000\u0000",
        "\u0000\u0000\u0000\u0000\u0000\u0000\u0000\u0000\u0000\u0000\u0000\u0000\u0000\u0000\u0000\u0000\u0000\u0000\u0000\u0000\u0000\u0000\u0000\u0000\u0000\u0000\u0000\u0000\u0000\u0000\u0000\u0000\u0000\u0000\u0000\u0000\u0000\u0000\u0000\u0000\u0000\u0000\u0000\u0000\u0000\u0000\u0000\u0000\u0000\u0000\u0000\u0000\u0000\u0000",
        "\u0000\u0000\u0000\u0000\u0000\u0000\u0000\u0000\u0000\u0000\u0000\u0000\u0000\u0000\u0000\u0000\u0000\u0000\u0000\u0000\u0000\u0000\u0000\u0000\u0000\u0000\u0000\u0000\u0000\u0000\u0000\u0000\u0000\u0000\u0000\u0000\u0000\u0000\u0000\u0000\u0000\u0000\u0000\u0000\u0000\u0000\u0000\u0000\u0000\u0000\u0000\u0000\u0000\u0000\u0000\u0000",
        "\u0000\u0000\u0000\u0000\u0000\u0000\u0000\u0000\u0000\u0000\u0000\u0000\u0000\u0000\u0000\u0000\u0000\u0000\u0000\u0000\u0000\u0000\u0000\u0000\u0000\u0000\u0000\u0000\u0000\u0000\u0000\u0000\u0000\u0000\u0000\u0000\u0000\u0000\u0000\u0000\u0000\u0000\u0000\u0000\u0000\u0000\u0000\u0000\u0000\u0000\u0000\u0000\u0000\u0000\u0000\u0000",
        "\u0000\u0000\u0000\u0000\u0000\u0000\u0000\u0000\u0000\u0000\u0000\u0000\u0000\u0000\u0000\u0000\u0000\u0000\u0000\u0000\u0000\u0000\u0000\u0000\u0000\u0000\u0000\u0000\u0000\u0000\u0000\u0000\u0000\u0000\u0000\u0000\u0000\u0000\u0000\u0000\u0000\u0000\u0000\u0000\u0000\u0000\u0000\u0000\u0000\u0000\u0000\u0000\u0000\u0000\u0000\u0000",
        "\u0000\u0000\u0000\u0000\u0000\u0000\u0000\u0000\u0000\u0000\u0000\u0000\u0000\u0000\u0000\u0000\u0000\u0000\u0000\u0000\u0000\u0000\u0000\u0000\u0000\u0000\u0000\u0000\u0000\u0000\u0000\u0000\u0000\u0000\u0000\u0000\u0000\u0000\u0000\u0000\u0000\u0000\u0000\u0000\u0000\u0000\u0000\u0000\u0000\u0000\u0000\u0000\u0000\u0000\u0000\u0000\u0000\u0000\u0000\u0000",
