{
  "AcquisitionMatrixPE": 110,
  "AcquisitionNumber": 1,
  "AcquisitionTime": "17:50:3.240000",
  "BandwidthPerPixelPhaseEncode": 26.35,
  "BaseResolution": 110,
  "CoilString": "C:HEA;HEP",
  "ConversionSoftware": "dcm2niix",
  "ConversionSoftwareVersion": "v1.0.20190410  GCC6.3.0",
  "DerivedVendorReportedEchoSpacing": 0.000690012,
  "DeviceSerialNumber": "35422",
  "DwellTime": 2.6e-06,
  "EchoTime": 0.03,
  "EffectiveEchoSpacing": 0.000345006,
  "FlipAngle": 85,
  "ImageComments": "Unaliased_MB4_PE4_LB",
  "ImageOrientationPatientDICOM": [0.999997, -0.000466488, -0.00236537, 1.86122e-10, 0.981103, -0.193489],
  "ImageType": [
    "ORIGINAL",
    "PRIMARY",
    "FMRI",
    "NONE",
    "MB",
    "ND",
    "MOSAIC"
],
  "ImagingFrequency": 123.177,
  "InPlanePhaseEncodingDirectionDICOM": "ROW",
  "InstitutionAddress": "kwanakro_599_C4F276_Seoul_KR_ZIP",
  "InstitutionName": "SNUBIC",
  "InstitutionalDepartmentName": "Department",
  "MRAcquisitionType": "2D",
  "MagneticFieldStrength": 3,
  "Manufacturer": "Siemens",
  "ManufacturersModelName": "TrioTim",
  "Modality": "MR",
  "MultibandAccelerationFactor": 4,
  "ParallelReductionFactorInPlane": 2,
  "PartialFourier": 1,
  "PatientPosition": "HFS",
  "PercentPhaseFOV": 100,
  "PhaseEncodingDirection": "i-",
  "PhaseEncodingSteps": 110,
  "PhaseResolution": 1,
  "PixelBandwidth": 1748,
  "ProcedureStepDescription": "SNU_SAVED",
  "ProtocolName": "WMGNG1_MB4_LR_SBRef",
  "PulseSequenceDetails": "%CustomerSeq%_cmrr_mbep2d_bold",
  "ReceiveCoilName": "32Ch_Head",
  "ReconMatrixPE": 110,
  "RefLinesPE": 32,
  "RepetitionTime": 1.5,
  "SAR": 0.137242,
  "ScanOptions": "FS",
  "ScanningSequence": "EP",
  "SequenceName": "epfid2d1_110",
  "SequenceVariant": "SK_SS",
  "SeriesDescription": "WMGNG1_MB4_LR_SBRef",
  "SeriesNumber": 13,
  "ShimSetting": [-4185, -29723, -2070, 762, -225, 699, -49, -56],
  "SliceThickness": 2.3,
  "SliceTiming": [0, 0.6575, 1.315, 0.47, 1.1275, 0.28, 0.94, 0.0925, 0.7525, 1.41, 0.5625, 1.2225, 0.375, 1.035, 0.1875, 0.845, 0, 0.6575, 1.315, 0.47, 1.1275, 0.28, 0.94, 0.0925, 0.7525, 1.41, 0.5625, 1.2225, 0.375, 1.035, 0.1875, 0.845, 0, 0.6575, 1.315, 0.47, 1.1275, 0.28, 0.94, 0.0925, 0.7525, 1.41, 0.5625, 1.2225, 0.375, 1.035, 0.1875, 0.845, 0, 0.6575, 1.315, 0.47, 1.1275, 0.28, 0.94, 0.0925, 0.7525, 1.41, 0.5625, 1.2225, 0.375, 1.035, 0.1875, 0.845],
  "SoftwareVersions": "syngo_MR_B17",
  "SpacingBetweenSlices": 2.3,
  "StationName": "MRC35422",
  "TaskName": "wmgng",
  "TotalReadoutTime": 0.0376057,
  "TxRefAmp": 326.573,
  "dcmmeta_affine": [
    [-2.327265977859497, 4.33155955548159e-10, -0.005545143038034439, 130.27899169921875],
    [0.001085644937120378, 2.2832930088043213, -0.4450225532054901, -106.07582092285156],
    [-0.005504863802343607, 0.45030081272125244, 2.2565290927886963, -76.74498748779297],
    [0.0, 0.0, 0.0, 1.0]
],
  "dcmmeta_reorient_transform": [
    [0.0, -1.0, 0.0, 109.0],
    [1.0, 0.0, 0.0, 0.0],
    [0.0, 0.0, 1.0, 0.0],
    [0.0, 0.0, 0.0, 1.0]
],
  "dcmmeta_shape": [110, 110, 64, 357],
  "dcmmeta_slice_dim": 2,
  "dcmmeta_version": 0.6,
  "global": {
    "const": {
      "AcquisitionMatrix": [0, 110, 110, 0],
      "AngioFlag": "N",
      "BitsAllocated": 16,
      "BitsStored": 12,
      "Columns": 880,
      "EchoNumbers": 1,
      "EchoTime": 30.0,
      "EchoTrainLength": 1,
      "FlipAngle": 85.0,
      "HighBit": 11,
      "ImageOrientationPatient": [0.99999709369987, -0.0004664880634, -0.0023653711528, 1.861217e-10, 0.98110251732681, -0.193488631436],
      "ImagePositionPatient": [-1026.276360115, -1021.4529756544, 147.8229783234],
      "ImageType": [
        "ORIGINAL",
        "PRIMARY",
        "FMRI",
        "NONE",
        "MB",
        "ND",
        "MOSAIC"
],
      "ImagedNucleus": "1H",
      "ImagingFrequency": 123.177468,
      "InPlanePhaseEncodingDirection": "ROW",
      "MRAcquisitionType": "2D",
      "MagneticFieldStrength": 3.0,
      "Manufacturer": "SIEMENS",
      "ManufacturerModelName": "TrioTim",
      "Modality": "MR",
      "NumberOfAverages": 1.0,
      "NumberOfPhaseEncodingSteps": 110,
      "PercentPhaseFieldOfView": 100.0,
      "PercentSampling": 100.0,
      "PerformedProcedureStepStartTime": "171351.546000",
      "PhotometricInterpretation": "MONOCHROME2",
      "PixelBandwidth": 1748.0,
      "PixelRepresentation": 0,
      "PixelSpacing": [2.3272726535797, 2.3272726535797],
      "ProtocolName": "WMGNG1_MB4_LR_SBRef",
      "ReferencedPerformedProcedureStepSequence": [
        {
          "ReferencedSOPClassUID": "1.2.840.10008.3.1.2.3.3",
          "ReferencedSOPInstanceUID": "1.3.12.2.1107.5.2.32.35422.30000020010306472709300000001"}
],
      "RepetitionTime": 1500.0,
      "Rows": 880,
      "SAR": 0.13724180936832,
      "SamplesPerPixel": 1,
      "ScanOptions": "FS",
      "ScanningSequence": "EP",
      "SequenceName": "epfid2d1_110",
      "SequenceVariant": [
        "SK",
        "SS"
],
      "SeriesDescription": "WMGNG1_MB4_LR_SBRef",
      "SeriesNumber": 13,
      "SeriesTime": "175720.593000",
      "SliceLocation": -55.084171522528,
      "SliceThickness": 2.2999999523163,
      "SmallestImagePixelValue": 0,
      "SoftwareVersions": "syngo MR B17",
      "SpacingBetweenSlices": 2.2999999553559,
      "SpecificCharacterSet": "ISO_IR 100",
      "StudyID": "1",
      "StudyTime": "171351.484000",
      "TransmitCoilName": "Body",
      "VariableFlipAngleFlag": "N",
      "WindowCenterWidthExplanation": "Algo1",
      "dBdt": 0.0},
    "slices": {}
  },
  "time": {
    "samples": {
      "AcquisitionNumber": [1, 2, 3, 4, 5, 6, 7, 8, 9, 10, 11, 12, 13, 14, 15, 16, 17, 18, 19, 20, 21, 22, 23, 24, 25, 26, 27, 28, 29, 30, 31, 32, 33, 34, 35, 36, 37, 38, 39, 40, 41, 42, 43, 44, 45, 46, 47, 48, 49, 50, 51, 52, 53, 54, 55, 56, 57, 58, 59, 60, 61, 62, 63, 64, 65, 66, 67, 68, 69, 70, 71, 72, 73, 74, 75, 76, 77, 78, 79, 80, 81, 82, 83, 84, 85, 86, 87, 88, 89, 90, 91, 92, 93, 94, 95, 96, 97, 98, 99, 100, 101, 102, 103, 104, 105, 106, 107, 108, 109, 110, 111, 112, 113, 114, 115, 116, 117, 118, 119, 120, 121, 122, 123, 124, 125, 126, 127, 128, 129, 130, 131, 132, 133, 134, 135, 136, 137, 138, 139, 140, 141, 142, 143, 144, 145, 146, 147, 148, 149, 150, 151, 152, 153, 154, 155, 156, 157, 158, 159, 160, 161, 162, 163, 164, 165, 166, 167, 168, 169, 170, 171, 172, 173, 174, 175, 176, 177, 178, 179, 180, 181, 182, 183, 184, 185, 186, 187, 188, 189, 190, 191, 192, 193, 194, 195, 196, 197, 198, 199, 200, 201, 202, 203, 204, 205, 206, 207, 208, 209, 210, 211, 212, 213, 214, 215, 216, 217, 218, 219, 220, 221, 222, 223, 224, 225, 226, 227, 228, 229, 230, 231, 232, 233, 234, 235, 236, 237, 238, 239, 240, 241, 242, 243, 244, 245, 246, 247, 248, 249, 250, 251, 252, 253, 254, 255, 256, 257, 258, 259, 260, 261, 262, 263, 264, 265, 266, 267, 268, 269, 270, 271, 272, 273, 274, 275, 276, 277, 278, 279, 280, 281, 282, 283, 284, 285, 286, 287, 288, 289, 290, 291, 292, 293, 294, 295, 296, 297, 298, 299, 300, 301, 302, 303, 304, 305, 306, 307, 308, 309, 310, 311, 312, 313, 314, 315, 316, 317, 318, 319, 320, 321, 322, 323, 324, 325, 326, 327, 328, 329, 330, 331, 332, 333, 334, 335, 336, 337, 338, 339, 340, 341, 342, 343, 344, 345, 346, 347, 348, 349, 350, 351, 352, 353, 354, 355, 356, 357],
      "AcquisitionTime": ["175003.240000", "175004.745000", "175006.250000", "175007.757500", "175009.262500", "175010.770000", "175012.275000", "175013.780000", "175015.287500", "175016.792500", "175018.300000", "175019.805000", "175021.310000", "175022.817500", "175024.322500", "175025.830000", "175027.335000", "175028.842500", "175030.347500", "175031.852500", "175033.360000", "175034.865000", "175036.372500", "175037.877500", "175039.382500", "175040.890000", "175042.395000", "175043.902500", "175045.407500", "175046.912500", "175048.420000", "175049.925000", "175051.432500", "175052.937500", "175054.442500", "175055.950000", "175057.455000", "175058.962500", "175100.467500", "175101.975000", "175103.480000", "175104.985000", "175106.492500", "175107.997500", "175109.505000", "175111.010000", "175112.515000", "175114.022500", "175115.527500", "175117.035000", "175118.540000", "175120.045000", "175121.552500", "175123.057500", "175124.565000", "175126.070000", "175127.575000", "175129.082500", "175130.587500", "175132.095000", "175133.600000", "175135.107500", "175136.612500", "175138.117500", "175139.625000", "175141.130000", "175142.637500", "175144.142500", "175145.647500", "175147.155000", "175148.660000", "175150.167500", "175151.672500", "175153.177500", "175154.685000", "175156.190000", "175157.697500", "175159.202500", "175200.710000", "175202.215000", "175203.720000", "175205.227500", "175206.732500", "175208.240000", "175209.745000", "175211.250000", "175212.757500", "175214.262500", "175215.770000", "175217.275000", "175218.780000", "175220.287500", "175221.792500", "175223.300000", "175224.805000", "175226.310000", "175227.817500", "175229.322500", "175230.830000", "175232.335000", "175233.842500", "175235.347500", "175236.852500", "175238.360000", "175239.865000", "175241.372500", "175242.877500", "175244.382500", "175245.890000", "175247.395000", "175248.902500", "175250.407500", "175251.912500", "175253.420000", "175254.925000", "175256.432500", "175257.937500", "175259.442500", "175300.950000", "175302.455000", "175303.962500", "175305.467500", "175306.975000", "175308.480000", "175309.985000", "175311.492500", "175312.997500", "175314.505000", "175316.010000", "175317.515000", "175319.022500", "175320.527500", "175322.035000", "175323.540000", "175325.045000", "175326.552500", "175328.057500", "175329.565000", "175331.070000", "175332.575000", "175334.082500", "175335.587500", "175337.095000", "175338.600000", "175340.107500", "175341.612500", "175343.117500", "175344.625000", "175346.130000", "175347.637500", "175349.142500", "175350.647500", "175352.155000", "175353.660000", "175355.167500", "175356.672500", "175358.177500", "175359.685000", "175401.190000", "175402.697500", "175404.202500", "175405.710000", "175407.215000", "175408.720000", "175410.227500", "175411.732500", "175413.240000", "175414.745000", "175416.250000", "175417.757500", "175419.262500", "175420.770000", "175422.275000", "175423.780000", "175425.287500", "175426.792500", "175428.300000", "175429.805000", "175431.310000", "175432.817500", "175434.322500", "175435.830000", "175437.335000", "175438.842500", "175440.347500", "175441.852500", "175443.360000", "175444.865000", "175446.372500", "175447.877500", "175449.382500", "175450.890000", "175452.395000", "175453.902500", "175455.407500", "175456.912500", "175458.420000", "175459.925000", "175501.432500", "175502.937500", "175504.442500", "175505.950000", "175507.455000", "175508.962500", "175510.467500", "175511.975000", "175513.480000", "175514.985000", "175516.492500", "175517.997500", "175519.505000", "175521.010000", "175522.515000", "175524.022500", "175525.527500", "175527.035000", "175528.540000", "175530.045000", "175531.552500", "175533.057500", "175534.565000", "175536.070000", "175537.575000", "175539.082500", "175540.587500", "175542.095000", "175543.600000", "175545.107500", "175546.612500", "175548.117500", "175549.625000", "175551.130000", "175552.637500", "175554.142500", "175555.647500", "175557.155000", "175558.660000", "175600.167500", "175601.672500", "175603.177500", "175604.685000", "175606.190000", "175607.697500", "175609.202500", "175610.710000", "175612.215000", "175613.720000", "175615.227500", "175616.732500", "175618.240000", "175619.745000", "175621.250000", "175622.757500", "175624.262500", "175625.770000", "175627.275000", "175628.780000", "175630.287500", "175631.792500", "175633.300000", "175634.805000", "175636.310000", "175637.817500", "175639.322500", "175640.830000", "175642.335000", "175643.842500", "175645.347500", "175646.852500", "175648.360000", "175649.865000", "175651.372500", "175652.877500", "175654.382500", "175655.890000", "175657.395000", "175658.902500", "175700.407500", "175701.912500", "175703.420000", "175704.925000", "175706.432500", "175707.937500", "175709.442500", "175710.950000", "175712.455000", "175713.962500", "175715.467500", "175716.975000", "175718.480000", "175719.985000", "175721.492500", "175722.997500", "175724.505000", "175726.010000", "175727.515000", "175729.022500", "175730.527500", "175732.035000", "175733.540000", "175735.045000", "175736.552500", "175738.057500", "175739.565000", "175741.070000", "175742.575000", "175744.082500", "175745.587500", "175747.095000", "175748.600000", "175750.107500", "175751.612500", "175753.117500", "175754.625000", "175756.130000", "175757.637500", "175759.142500", "175800.647500", "175802.155000", "175803.660000", "175805.167500", "175806.672500", "175808.177500", "175809.685000", "175811.190000", "175812.697500", "175814.202500", "175815.710000", "175817.215000", "175818.720000", "175820.227500", "175821.732500", "175823.240000", "175824.745000", "175826.250000", "175827.757500", "175829.262500", "175830.770000", "175832.275000", "175833.780000", "175835.287500", "175836.792500", "175838.300000", "175839.805000", "175841.310000", "175842.817500", "175844.322500", "175845.830000", "175847.335000", "175848.842500", "175850.347500", "175851.852500", "175853.360000", "175854.865000", "175856.372500", "175857.877500", "175859.382500"],
      "ContentTime": ["175720.593000", "175720.593000", "175720.609000", "175720.609000", "175720.609000", "175820.593000", "175820.593000", "175820.593000", "175820.593000", "175820.593000", "175820.593000", "175820.609000", "175820.609000", "175820.609000", "175820.609000", "175820.609000", "175820.609000", "175820.609000", "175820.625000", "175820.625000", "175820.625000", "175820.640000", "175820.640000", "175820.640000", "175820.640000", "175820.640000", "175820.640000", "175820.640000", "175820.656000", "175820.656000", "175820.656000", "175920.593000", "175920.593000", "175920.593000", "175920.593000", "175920.593000", "175920.593000", "175920.609000", "175920.609000", "175920.609000", "175920.609000", "175920.609000", "175920.609000", "175920.609000", "175920.609000", "175920.609000", "175920.625000", "175920.625000", "175920.625000", "175920.625000", "175920.625000", "175920.625000", "175920.640000", "175920.640000", "175920.640000", "175920.640000", "175920.640000", "180020.593000", "180020.593000", "180020.593000", "180020.593000", "180020.593000", "180020.593000", "180020.609000", "180020.609000", "180020.609000", "180020.609000", "180020.609000", "180020.609000", "180020.609000", "180020.609000", "180020.625000", "180020.625000", "180020.625000", "180020.625000", "180020.625000", "180020.625000", "180020.625000", "180020.625000", "180020.625000", "180020.640000", "180020.640000", "180020.640000", "180020.640000", "180100.593000", "180100.593000", "180100.593000", "180100.593000", "180100.593000", "180100.593000", "180100.593000", "180100.609000", "180100.609000", "180100.609000", "180100.609000", "180100.609000", "180100.609000", "180100.625000", "180100.625000", "180100.625000", "180100.625000", "180200.593000", "180200.593000", "180200.609000", "180200.609000", "180200.609000", "180200.609000", "180200.609000", "180200.609000", "180200.625000", "180200.625000", "180200.625000", "180200.625000", "180200.625000", "180200.625000", "180200.625000", "180200.625000", "180200.640000", "180200.640000", "180200.640000", "180200.640000", "180200.640000", "180200.640000", "180200.640000", "180200.640000", "180200.640000", "180200.656000", "180300.593000", "180300.593000", "180300.593000", "180300.609000", "180300.609000", "180300.609000", "180300.609000", "180300.609000", "180300.609000", "180300.609000", "180300.609000", "180300.609000", "180300.625000", "180300.625000", "180300.625000", "180300.625000", "180300.625000", "180300.625000", "180300.625000", "180300.625000", "180300.625000", "180300.640000", "180300.640000", "180300.640000", "180300.640000", "180300.640000", "180400.593000", "180400.593000", "180400.593000", "180400.593000", "180400.593000", "180400.593000", "180400.593000", "180400.609000", "180400.609000", "180400.609000", "180400.609000", "180400.609000", "180400.625000", "180400.625000", "180400.625000", "180400.625000", "180400.625000", "180400.625000", "180400.625000", "180400.625000", "180400.625000", "180400.640000", "180400.640000", "180400.640000", "180400.640000", "180400.640000", "180400.640000", "180500.593000", "180500.593000", "180500.593000", "180500.593000", "180500.593000", "180500.593000", "180500.609000", "180500.609000", "180500.609000", "180500.609000", "180500.609000", "180500.609000", "180500.609000", "180500.609000", "180500.609000", "180500.625000", "180500.625000", "180500.625000", "180500.625000", "180500.625000", "180500.640000", "180500.640000", "180500.640000", "180500.640000", "180500.640000", "180500.640000", "180600.593000", "180600.593000", "180600.593000", "180600.593000", "180600.593000", "180600.593000", "180600.609000", "180600.609000", "180600.609000", "180600.609000", "180600.609000", "180600.609000", "180600.609000", "180600.625000", "180600.625000", "180600.625000", "180600.625000", "180600.625000", "180600.625000", "180600.625000", "180600.640000", "180600.640000", "180600.640000", "180600.640000", "180600.640000", "180600.640000", "180700.593000", "180700.593000", "180700.593000", "180700.593000", "180700.593000", "180700.593000", "180700.609000", "180700.609000", "180700.609000", "180700.609000", "180700.609000", "180700.609000", "180700.609000", "180700.609000", "180700.609000", "180700.625000", "180700.625000", "180700.625000", "180700.625000", "180700.625000", "180700.625000", "180700.640000", "180700.640000", "180700.640000", "180700.640000", "180700.640000", "180800.593000", "180800.593000", "180800.593000", "180800.593000", "180800.593000", "180800.609000", "180800.609000", "180800.609000", "180800.609000", "180800.609000", "180800.625000", "180800.625000", "180800.625000", "180800.625000", "180800.625000", "180800.625000", "180800.625000", "180800.640000", "180800.640000", "180800.640000", "180800.640000", "180800.640000", "180800.640000", "180800.640000", "180800.640000", "180800.656000", "180900.593000", "180900.593000", "180900.593000", "180900.593000", "180900.593000", "180900.593000", "180900.593000", "180900.609000", "180900.609000", "180900.609000", "180900.609000", "180900.609000", "180900.609000", "180900.609000", "180900.609000", "180900.609000", "180900.625000", "180900.625000", "180900.625000", "180900.625000", "180900.625000", "180900.625000", "180900.640000", "180900.640000", "180900.640000", "180900.640000", "181000.593000", "181000.593000", "181000.593000", "181000.593000", "181000.593000", "181000.593000", "181000.593000", "181000.609000", "181000.609000", "181000.609000", "181000.609000", "181000.609000", "181000.609000", "181000.609000", "181000.609000", "181000.609000", "181000.625000", "181000.625000", "181000.625000", "181000.625000", "181000.625000", "181000.625000", "181000.625000", "181000.625000", "181000.625000", "181000.640000", "181048.609000", "181048.609000", "181048.625000", "181048.625000", "181048.625000", "181048.625000", "181048.625000", "181048.625000", "181048.625000", "181048.640000", "181048.640000", "181048.640000", "181048.640000", "181048.640000", "181048.640000", "181048.640000", "181048.656000", "181048.656000", "181048.656000", "181048.656000", "181048.656000"],
      "DataSetTrailingPadding": [
        "\u0000\u0000\u0000\u0000\u0000\u0000\u0000\u0000\u0000\u0000\u0000\u0000\u0000\u0000\u0000\u0000\u0000\u0000\u0000\u0000\u0000\u0000\u0000\u0000\u0000\u0000\u0000\u0000\u0000\u0000\u0000\u0000\u0000\u0000\u0000\u0000\u0000\u0000\u0000\u0000\u0000\u0000\u0000\u0000\u0000\u0000\u0000\u0000\u0000\u0000\u0000\u0000\u0000\u0000\u0000\u0000\u0000\u0000\u0000\u0000",
        "\u0000\u0000\u0000\u0000\u0000\u0000\u0000\u0000\u0000\u0000\u0000\u0000\u0000\u0000\u0000\u0000\u0000\u0000\u0000\u0000\u0000\u0000\u0000\u0000\u0000\u0000\u0000\u0000\u0000\u0000\u0000\u0000\u0000\u0000\u0000\u0000\u0000\u0000\u0000\u0000\u0000\u0000\u0000\u0000\u0000\u0000\u0000\u0000\u0000\u0000\u0000\u0000\u0000\u0000\u0000\u0000\u0000\u0000",
        "\u0000\u0000\u0000\u0000\u0000\u0000\u0000\u0000\u0000\u0000\u0000\u0000\u0000\u0000\u0000\u0000\u0000\u0000\u0000\u0000\u0000\u0000\u0000\u0000\u0000\u0000\u0000\u0000\u0000\u0000\u0000\u0000\u0000\u0000\u0000\u0000\u0000\u0000\u0000\u0000\u0000\u0000\u0000\u0000\u0000\u0000\u0000\u0000\u0000\u0000\u0000\u0000\u0000\u0000\u0000\u0000\u0000\u0000",
        "\u0000\u0000\u0000\u0000\u0000\u0000\u0000\u0000\u0000\u0000\u0000\u0000\u0000\u0000\u0000\u0000\u0000\u0000\u0000\u0000\u0000\u0000\u0000\u0000\u0000\u0000\u0000\u0000\u0000\u0000\u0000\u0000\u0000\u0000\u0000\u0000\u0000\u0000\u0000\u0000\u0000\u0000\u0000\u0000\u0000\u0000\u0000\u0000\u0000\u0000\u0000\u0000\u0000\u0000\u0000\u0000\u0000\u0000",
        "\u0000\u0000\u0000\u0000\u0000\u0000\u0000\u0000\u0000\u0000\u0000\u0000\u0000\u0000\u0000\u0000\u0000\u0000\u0000\u0000\u0000\u0000\u0000\u0000\u0000\u0000\u0000\u0000\u0000\u0000\u0000\u0000\u0000\u0000\u0000\u0000\u0000\u0000\u0000\u0000\u0000\u0000\u0000\u0000\u0000\u0000\u0000\u0000\u0000\u0000\u0000\u0000\u0000\u0000\u0000\u0000\u0000\u0000\u0000\u0000",
        "\u0000\u0000\u0000\u0000\u0000\u0000\u0000\u0000\u0000\u0000\u0000\u0000\u0000\u0000\u0000\u0000\u0000\u0000\u0000\u0000\u0000\u0000\u0000\u0000\u0000\u0000\u0000\u0000\u0000\u0000\u0000\u0000\u0000\u0000\u0000\u0000\u0000\u0000\u0000\u0000\u0000\u0000\u0000\u0000\u0000\u0000\u0000\u0000\u0000\u0000\u0000\u0000\u0000\u0000\u0000\u0000\u0000\u0000\u0000\u0000",
        "\u0000\u0000\u0000\u0000\u0000\u0000\u0000\u0000\u0000\u0000\u0000\u0000\u0000\u0000\u0000\u0000\u0000\u0000\u0000\u0000\u0000\u0000\u0000\u0000\u0000\u0000\u0000\u0000\u0000\u0000\u0000\u0000\u0000\u0000\u0000\u0000\u0000\u0000\u0000\u0000\u0000\u0000\u0000\u0000\u0000\u0000\u0000\u0000\u0000\u0000\u0000\u0000\u0000\u0000\u0000\u0000\u0000\u0000",
        "\u0000\u0000\u0000\u0000\u0000\u0000\u0000\u0000\u0000\u0000\u0000\u0000\u0000\u0000\u0000\u0000\u0000\u0000\u0000\u0000\u0000\u0000\u0000\u0000\u0000\u0000\u0000\u0000\u0000\u0000\u0000\u0000\u0000\u0000\u0000\u0000\u0000\u0000\u0000\u0000\u0000\u0000\u0000\u0000\u0000\u0000\u0000\u0000\u0000\u0000\u0000\u0000\u0000\u0000\u0000\u0000\u0000\u0000",
        "\u0000\u0000\u0000\u0000\u0000\u0000\u0000\u0000\u0000\u0000\u0000\u0000\u0000\u0000\u0000\u0000\u0000\u0000\u0000\u0000\u0000\u0000\u0000\u0000\u0000\u0000\u0000\u0000\u0000\u0000\u0000\u0000\u0000\u0000\u0000\u0000\u0000\u0000\u0000\u0000\u0000\u0000\u0000\u0000\u0000\u0000\u0000\u0000\u0000\u0000\u0000\u0000\u0000\u0000\u0000\u0000\u0000\u0000",
        "\u0000\u0000\u0000\u0000\u0000\u0000\u0000\u0000\u0000\u0000\u0000\u0000\u0000\u0000\u0000\u0000\u0000\u0000\u0000\u0000\u0000\u0000\u0000\u0000\u0000\u0000\u0000\u0000\u0000\u0000\u0000\u0000\u0000\u0000\u0000\u0000\u0000\u0000\u0000\u0000\u0000\u0000\u0000\u0000\u0000\u0000\u0000\u0000\u0000\u0000\u0000\u0000\u0000\u0000\u0000\u0000",
        "\u0000\u0000\u0000\u0000\u0000\u0000\u0000\u0000\u0000\u0000\u0000\u0000\u0000\u0000\u0000\u0000\u0000\u0000\u0000\u0000\u0000\u0000\u0000\u0000\u0000\u0000\u0000\u0000\u0000\u0000\u0000\u0000\u0000\u0000\u0000\u0000\u0000\u0000\u0000\u0000\u0000\u0000\u0000\u0000\u0000\u0000\u0000\u0000\u0000\u0000\u0000\u0000\u0000\u0000\u0000\u0000",
        "\u0000\u0000\u0000\u0000\u0000\u0000\u0000\u0000\u0000\u0000\u0000\u0000\u0000\u0000\u0000\u0000\u0000\u0000\u0000\u0000\u0000\u0000\u0000\u0000\u0000\u0000\u0000\u0000\u0000\u0000\u0000\u0000\u0000\u0000\u0000\u0000\u0000\u0000\u0000\u0000\u0000\u0000\u0000\u0000\u0000\u0000\u0000\u0000\u0000\u0000\u0000\u0000\u0000\u0000",
        "\u0000\u0000\u0000\u0000\u0000\u0000\u0000\u0000\u0000\u0000\u0000\u0000\u0000\u0000\u0000\u0000\u0000\u0000\u0000\u0000\u0000\u0000\u0000\u0000\u0000\u0000\u0000\u0000\u0000\u0000\u0000\u0000\u0000\u0000\u0000\u0000\u0000\u0000\u0000\u0000\u0000\u0000\u0000\u0000\u0000\u0000\u0000\u0000\u0000\u0000\u0000\u0000\u0000\u0000",
        "\u0000\u0000\u0000\u0000\u0000\u0000\u0000\u0000\u0000\u0000\u0000\u0000\u0000\u0000\u0000\u0000\u0000\u0000\u0000\u0000\u0000\u0000\u0000\u0000\u0000\u0000\u0000\u0000\u0000\u0000\u0000\u0000\u0000\u0000\u0000\u0000\u0000\u0000\u0000\u0000\u0000\u0000\u0000\u0000\u0000\u0000\u0000\u0000\u0000\u0000\u0000\u0000\u0000\u0000",
        "\u0000\u0000\u0000\u0000\u0000\u0000\u0000\u0000\u0000\u0000\u0000\u0000\u0000\u0000\u0000\u0000\u0000\u0000\u0000\u0000\u0000\u0000\u0000\u0000\u0000\u0000\u0000\u0000\u0000\u0000\u0000\u0000\u0000\u0000\u0000\u0000\u0000\u0000\u0000\u0000\u0000\u0000\u0000\u0000\u0000\u0000\u0000\u0000\u0000\u0000\u0000\u0000\u0000\u0000\u0000\u0000",
        "\u0000\u0000\u0000\u0000\u0000\u0000\u0000\u0000\u0000\u0000\u0000\u0000\u0000\u0000\u0000\u0000\u0000\u0000\u0000\u0000\u0000\u0000\u0000\u0000\u0000\u0000\u0000\u0000\u0000\u0000\u0000\u0000\u0000\u0000\u0000\u0000\u0000\u0000\u0000\u0000\u0000\u0000\u0000\u0000\u0000\u0000\u0000\u0000\u0000\u0000\u0000\u0000\u0000\u0000\u0000\u0000",
        "\u0000\u0000\u0000\u0000\u0000\u0000\u0000\u0000\u0000\u0000\u0000\u0000\u0000\u0000\u0000\u0000\u0000\u0000\u0000\u0000\u0000\u0000\u0000\u0000\u0000\u0000\u0000\u0000\u0000\u0000\u0000\u0000\u0000\u0000\u0000\u0000\u0000\u0000\u0000\u0000\u0000\u0000\u0000\u0000\u0000\u0000\u0000\u0000\u0000\u0000\u0000\u0000\u0000\u0000",
        "\u0000\u0000\u0000\u0000\u0000\u0000\u0000\u0000\u0000\u0000\u0000\u0000\u0000\u0000\u0000\u0000\u0000\u0000\u0000\u0000\u0000\u0000\u0000\u0000\u0000\u0000\u0000\u0000\u0000\u0000\u0000\u0000\u0000\u0000\u0000\u0000\u0000\u0000\u0000\u0000\u0000\u0000\u0000\u0000\u0000\u0000\u0000\u0000\u0000\u0000\u0000\u0000\u0000\u0000\u0000\u0000",
        "\u0000\u0000\u0000\u0000\u0000\u0000\u0000\u0000\u0000\u0000\u0000\u0000\u0000\u0000\u0000\u0000\u0000\u0000\u0000\u0000\u0000\u0000\u0000\u0000\u0000\u0000\u0000\u0000\u0000\u0000\u0000\u0000\u0000\u0000\u0000\u0000\u0000\u0000\u0000\u0000\u0000\u0000\u0000\u0000\u0000\u0000\u0000\u0000\u0000\u0000\u0000\u0000\u0000\u0000\u0000\u0000",
        "\u0000\u0000\u0000\u0000\u0000\u0000\u0000\u0000\u0000\u0000\u0000\u0000\u0000\u0000\u0000\u0000\u0000\u0000\u0000\u0000\u0000\u0000\u0000\u0000\u0000\u0000\u0000\u0000\u0000\u0000\u0000\u0000\u0000\u0000\u0000\u0000\u0000\u0000\u0000\u0000\u0000\u0000\u0000\u0000\u0000\u0000\u0000\u0000\u0000\u0000\u0000\u0000\u0000\u0000\u0000\u0000",
        "\u0000\u0000\u0000\u0000\u0000\u0000\u0000\u0000\u0000\u0000\u0000\u0000\u0000\u0000\u0000\u0000\u0000\u0000\u0000\u0000\u0000\u0000\u0000\u0000\u0000\u0000\u0000\u0000\u0000\u0000\u0000\u0000\u0000\u0000\u0000\u0000\u0000\u0000\u0000\u0000\u0000\u0000\u0000\u0000\u0000\u0000\u0000\u0000\u0000\u0000\u0000\u0000\u0000\u0000\u0000\u0000",
        "\u0000\u0000\u0000\u0000\u0000\u0000\u0000\u0000\u0000\u0000\u0000\u0000\u0000\u0000\u0000\u0000\u0000\u0000\u0000\u0000\u0000\u0000\u0000\u0000\u0000\u0000\u0000\u0000\u0000\u0000\u0000\u0000\u0000\u0000\u0000\u0000\u0000\u0000\u0000\u0000\u0000\u0000\u0000\u0000\u0000\u0000\u0000\u0000\u0000\u0000\u0000\u0000\u0000\u0000",
        "\u0000\u0000\u0000\u0000\u0000\u0000\u0000\u0000\u0000\u0000\u0000\u0000\u0000\u0000\u0000\u0000\u0000\u0000\u0000\u0000\u0000\u0000\u0000\u0000\u0000\u0000\u0000\u0000\u0000\u0000\u0000\u0000\u0000\u0000\u0000\u0000\u0000\u0000\u0000\u0000\u0000\u0000\u0000\u0000\u0000\u0000\u0000\u0000\u0000\u0000\u0000\u0000\u0000\u0000",
        "\u0000\u0000\u0000\u0000\u0000\u0000\u0000\u0000\u0000\u0000\u0000\u0000\u0000\u0000\u0000\u0000\u0000\u0000\u0000\u0000\u0000\u0000\u0000\u0000\u0000\u0000\u0000\u0000\u0000\u0000\u0000\u0000\u0000\u0000\u0000\u0000\u0000\u0000\u0000\u0000\u0000\u0000\u0000\u0000\u0000\u0000\u0000\u0000\u0000\u0000\u0000\u0000\u0000\u0000\u0000\u0000",
        "\u0000\u0000\u0000\u0000\u0000\u0000\u0000\u0000\u0000\u0000\u0000\u0000\u0000\u0000\u0000\u0000\u0000\u0000\u0000\u0000\u0000\u0000\u0000\u0000\u0000\u0000\u0000\u0000\u0000\u0000\u0000\u0000\u0000\u0000\u0000\u0000\u0000\u0000\u0000\u0000\u0000\u0000\u0000\u0000\u0000\u0000\u0000\u0000\u0000\u0000\u0000\u0000\u0000\u0000\u0000\u0000",
        "\u0000\u0000\u0000\u0000\u0000\u0000\u0000\u0000\u0000\u0000\u0000\u0000\u0000\u0000\u0000\u0000\u0000\u0000\u0000\u0000\u0000\u0000\u0000\u0000\u0000\u0000\u0000\u0000\u0000\u0000\u0000\u0000\u0000\u0000\u0000\u0000\u0000\u0000\u0000\u0000\u0000\u0000\u0000\u0000\u0000\u0000\u0000\u0000\u0000\u0000\u0000\u0000\u0000\u0000\u0000\u0000",
        "\u0000\u0000\u0000\u0000\u0000\u0000\u0000\u0000\u0000\u0000\u0000\u0000\u0000\u0000\u0000\u0000\u0000\u0000\u0000\u0000\u0000\u0000\u0000\u0000\u0000\u0000\u0000\u0000\u0000\u0000\u0000\u0000\u0000\u0000\u0000\u0000\u0000\u0000\u0000\u0000\u0000\u0000\u0000\u0000\u0000\u0000\u0000\u0000\u0000\u0000\u0000\u0000\u0000\u0000",
        "\u0000\u0000\u0000\u0000\u0000\u0000\u0000\u0000\u0000\u0000\u0000\u0000\u0000\u0000\u0000\u0000\u0000\u0000\u0000\u0000\u0000\u0000\u0000\u0000\u0000\u0000\u0000\u0000\u0000\u0000\u0000\u0000\u0000\u0000\u0000\u0000\u0000\u0000\u0000\u0000\u0000\u0000\u0000\u0000\u0000\u0000\u0000\u0000\u0000\u0000\u0000\u0000\u0000\u0000",
        "\u0000\u0000\u0000\u0000\u0000\u0000\u0000\u0000\u0000\u0000\u0000\u0000\u0000\u0000\u0000\u0000\u0000\u0000\u0000\u0000\u0000\u0000\u0000\u0000\u0000\u0000\u0000\u0000\u0000\u0000\u0000\u0000\u0000\u0000\u0000\u0000\u0000\u0000\u0000\u0000\u0000\u0000\u0000\u0000\u0000\u0000\u0000\u0000\u0000\u0000\u0000\u0000\u0000\u0000\u0000\u0000",
        "\u0000\u0000\u0000\u0000\u0000\u0000\u0000\u0000\u0000\u0000\u0000\u0000\u0000\u0000\u0000\u0000\u0000\u0000\u0000\u0000\u0000\u0000\u0000\u0000\u0000\u0000\u0000\u0000\u0000\u0000\u0000\u0000\u0000\u0000\u0000\u0000\u0000\u0000\u0000\u0000\u0000\u0000\u0000\u0000\u0000\u0000\u0000\u0000\u0000\u0000\u0000\u0000\u0000\u0000\u0000\u0000",
