{
  "AcquisitionMatrixPE": 110,
  "AcquisitionNumber": 1,
  "AcquisitionTime": "10:57:42.367500",
  "BandwidthPerPixelPhaseEncode": 26.35,
  "BaseResolution": 110,
  "CoilString": "C:HEA;HEP",
  "ConversionSoftware": "dcm2niix",
  "ConversionSoftwareVersion": "v1.0.20190410  GCC6.3.0",
  "DerivedVendorReportedEchoSpacing": 0.000690012,
  "DeviceSerialNumber": "35422",
  "DwellTime": 2.6e-06,
  "EchoTime": 0.03,
  "EffectiveEchoSpacing": 0.000345006,
  "FlipAngle": 85,
  "ImageComments": "Unaliased_MB4_PE4_LB",
  "ImageOrientationPatientDICOM": [0.999782, -0.00229034, 0.0207489, 2.43551e-10, 0.993963, 0.109717],
  "ImageType": [
    "ORIGINAL",
    "PRIMARY",
    "FMRI",
    "NONE",
    "MB",
    "ND",
    "MOSAIC"
],
  "ImagingFrequency": 123.177,
  "InPlanePhaseEncodingDirectionDICOM": "ROW",
  "InstitutionAddress": "kwanakro_599_C6F879_Seoul_KR_ZIP",
  "InstitutionName": "SNUBIC",
  "InstitutionalDepartmentName": "Department",
  "MRAcquisitionType": "2D",
  "MagneticFieldStrength": 3,
  "Manufacturer": "Siemens",
  "ManufacturersModelName": "TrioTim",
  "Modality": "MR",
  "MultibandAccelerationFactor": 4,
  "ParallelReductionFactorInPlane": 2,
  "PartialFourier": 1,
  "PatientPosition": "HFS",
  "PercentPhaseFOV": 100,
  "PhaseEncodingDirection": "i-",
  "PhaseEncodingSteps": 110,
  "PhaseResolution": 1,
  "PixelBandwidth": 1748,
  "ProcedureStepDescription": "SNU_SAVED",
  "ProtocolName": "WMGNG2_MB4_LR_SBRef",
  "PulseSequenceDetails": "%CustomerSeq%_cmrr_mbep2d_bold",
  "ReceiveCoilName": "32Ch_Head",
  "ReconMatrixPE": 110,
  "RefLinesPE": 32,
  "RepetitionTime": 1.5,
  "SAR": 0.122999,
  "ScanOptions": "FS",
  "ScanningSequence": "EP",
  "SequenceName": "epfid2d1_110",
  "SequenceVariant": "SK_SS",
  "SeriesDescription": "WMGNG2_MB4_LR_SBRef",
  "SeriesNumber": 20,
  "ShimSetting": [-4150, -29738, -2055, 616, 69, 609, 194, -106],
  "SliceThickness": 2.3,
  "SliceTiming": [0, 0.66, 1.3175, 0.4725, 1.13, 0.2825, 0.9425, 0.095, 0.755, 1.4125, 0.565, 1.225, 0.3775, 1.035, 0.19, 0.8475, 0, 0.66, 1.3175, 0.4725, 1.13, 0.2825, 0.9425, 0.095, 0.755, 1.4125, 0.565, 1.225, 0.3775, 1.035, 0.19, 0.8475, 0, 0.66, 1.3175, 0.4725, 1.13, 0.2825, 0.9425, 0.095, 0.755, 1.4125, 0.565, 1.225, 0.3775, 1.035, 0.19, 0.8475, 0, 0.66, 1.3175, 0.4725, 1.13, 0.2825, 0.9425, 0.095, 0.755, 1.4125, 0.565, 1.225, 0.3775, 1.035, 0.19, 0.8475],
  "SoftwareVersions": "syngo_MR_B17",
  "SpacingBetweenSlices": 2.3,
  "StationName": "MRC35422",
  "TaskName": "wmgng",
  "TotalReadoutTime": 0.0376057,
  "TxRefAmp": 302.108,
  "dcmmeta_affine": [
    [-2.326765537261963, 5.668095992561462e-10, 0.04801240935921669, 128.5513458251953],
    [0.005330236162990332, 2.313222646713257, 0.25229382514953613, -114.05269622802734],
    [0.048288434743881226, -0.2553410828113556, 2.285616397857666, -27.593374252319336],
    [0.0, 0.0, 0.0, 1.0]
],
  "dcmmeta_reorient_transform": [
    [0.0, -1.0, 0.0, 109.0],
    [1.0, 0.0, 0.0, 0.0],
    [0.0, 0.0, 1.0, 0.0],
    [0.0, 0.0, 0.0, 1.0]
],
  "dcmmeta_shape": [110, 110, 64, 357],
  "dcmmeta_slice_dim": 2,
  "dcmmeta_version": 0.6,
  "global": {
    "const": {
      "AcquisitionMatrix": [0, 110, 110, 0],
      "AngioFlag": "N",
      "BitsAllocated": 16,
      "BitsStored": 12,
      "Columns": 880,
      "EchoNumbers": 1,
      "EchoTime": 30.0,
      "EchoTrainLength": 1,
      "FlipAngle": 85.0,
      "HighBit": 11,
      "ImageOrientationPatient": [0.99978209424638, -0.0022903358805, 0.0207489369818, 2.43551e-10, 0.99396287984332, 0.10971687879985],
      "ImagePositionPatient": [-1024.3560734368, -1026.6271433339, -172.32292039032],
      "ImageType": [
        "ORIGINAL",
        "PRIMARY",
        "FMRI",
        "NONE",
        "MB",
        "ND",
        "MOSAIC"
],
      "ImagedNucleus": "1H",
      "ImagingFrequency": 123.177289,
      "InPlanePhaseEncodingDirection": "ROW",
      "MRAcquisitionType": "2D",
      "MagneticFieldStrength": 3.0,
      "Manufacturer": "SIEMENS",
      "ManufacturerModelName": "TrioTim",
      "Modality": "MR",
      "NumberOfAverages": 1.0,
      "NumberOfPhaseEncodingSteps": 110,
      "PercentPhaseFieldOfView": 100.0,
      "PercentSampling": 100.0,
      "PerformedProcedureStepStartTime": "101915.359000",
      "PhotometricInterpretation": "MONOCHROME2",
      "PixelBandwidth": 1748.0,
      "PixelRepresentation": 0,
      "PixelSpacing": [2.3272726535797, 2.3272726535797],
      "ProtocolName": "WMGNG2_MB4_LR_SBRef",
      "ReferencedPerformedProcedureStepSequence": [
        {
          "ReferencedSOPClassUID": "1.2.840.10008.3.1.2.3.3",
          "ReferencedSOPInstanceUID": "1.3.12.2.1107.5.2.32.35422.30000020060401191539000000000"}
],
      "RepetitionTime": 1500.0,
      "Rows": 880,
      "SAR": 0.12299919973567,
      "SamplesPerPixel": 1,
      "ScanOptions": "FS",
      "ScanningSequence": "EP",
      "SequenceName": "epfid2d1_110",
      "SequenceVariant": [
        "SK",
        "SS"
],
      "SeriesDescription": "WMGNG2_MB4_LR_SBRef",
      "SeriesNumber": 20,
      "SeriesTime": "110640.109000",
      "SliceLocation": -37.248087680387,
      "SliceThickness": 2.2999999523163,
      "SmallestImagePixelValue": 0,
      "SoftwareVersions": "syngo MR B17",
      "SpacingBetweenSlices": 2.2999999693181,
      "SpecificCharacterSet": "ISO_IR 100",
      "StudyID": "1",
      "StudyTime": "101915.171000",
      "TransmitCoilName": "Body",
      "VariableFlipAngleFlag": "N",
      "WindowCenterWidthExplanation": "Algo1",
      "dBdt": 0.0},
    "slices": {}
  },
  "time": {
    "samples": {
      "AcquisitionNumber": [1, 2, 3, 4, 5, 6, 7, 8, 9, 10, 11, 12, 13, 14, 15, 16, 17, 18, 19, 20, 21, 22, 23, 24, 25, 26, 27, 28, 29, 30, 31, 32, 33, 34, 35, 36, 37, 38, 39, 40, 41, 42, 43, 44, 45, 46, 47, 48, 49, 50, 51, 52, 53, 54, 55, 56, 57, 58, 59, 60, 61, 62, 63, 64, 65, 66, 67, 68, 69, 70, 71, 72, 73, 74, 75, 76, 77, 78, 79, 80, 81, 82, 83, 84, 85, 86, 87, 88, 89, 90, 91, 92, 93, 94, 95, 96, 97, 98, 99, 100, 101, 102, 103, 104, 105, 106, 107, 108, 109, 110, 111, 112, 113, 114, 115, 116, 117, 118, 119, 120, 121, 122, 123, 124, 125, 126, 127, 128, 129, 130, 131, 132, 133, 134, 135, 136, 137, 138, 139, 140, 141, 142, 143, 144, 145, 146, 147, 148, 149, 150, 151, 152, 153, 154, 155, 156, 157, 158, 159, 160, 161, 162, 163, 164, 165, 166, 167, 168, 169, 170, 171, 172, 173, 174, 175, 176, 177, 178, 179, 180, 181, 182, 183, 184, 185, 186, 187, 188, 189, 190, 191, 192, 193, 194, 195, 196, 197, 198, 199, 200, 201, 202, 203, 204, 205, 206, 207, 208, 209, 210, 211, 212, 213, 214, 215, 216, 217, 218, 219, 220, 221, 222, 223, 224, 225, 226, 227, 228, 229, 230, 231, 232, 233, 234, 235, 236, 237, 238, 239, 240, 241, 242, 243, 244, 245, 246, 247, 248, 249, 250, 251, 252, 253, 254, 255, 256, 257, 258, 259, 260, 261, 262, 263, 264, 265, 266, 267, 268, 269, 270, 271, 272, 273, 274, 275, 276, 277, 278, 279, 280, 281, 282, 283, 284, 285, 286, 287, 288, 289, 290, 291, 292, 293, 294, 295, 296, 297, 298, 299, 300, 301, 302, 303, 304, 305, 306, 307, 308, 309, 310, 311, 312, 313, 314, 315, 316, 317, 318, 319, 320, 321, 322, 323, 324, 325, 326, 327, 328, 329, 330, 331, 332, 333, 334, 335, 336, 337, 338, 339, 340, 341, 342, 343, 344, 345, 346, 347, 348, 349, 350, 351, 352, 353, 354, 355, 356, 357],
      "AcquisitionTime": ["105742.367500", "105743.875000", "105745.380000", "105746.887500", "105748.392500", "105749.897500", "105751.405000", "105752.910000", "105754.417500", "105755.922500", "105757.430000", "105758.935000", "105800.440000", "105801.947500", "105803.452500", "105804.960000", "105806.465000", "105807.970000", "105809.477500", "105810.982500", "105812.490000", "105813.995000", "105815.500000", "105817.007500", "105818.512500", "105820.020000", "105821.525000", "105823.030000", "105824.537500", "105826.042500", "105827.550000", "105829.055000", "105830.562500", "105832.067500", "105833.572500", "105835.080000", "105836.585000", "105838.092500", "105839.597500", "105841.102500", "105842.610000", "105844.115000", "105845.622500", "105847.127500", "105848.632500", "105850.140000", "105851.645000", "105853.152500", "105854.657500", "105856.162500", "105857.670000", "105859.175000", "105900.682500", "105902.187500", "105903.695000", "105905.200000", "105906.705000", "105908.212500", "105909.717500", "105911.225000", "105912.730000", "105914.235000", "105915.742500", "105917.247500", "105918.755000", "105920.260000", "105921.765000", "105923.272500", "105924.777500", "105926.285000", "105927.790000", "105929.297500", "105930.802500", "105932.307500", "105933.815000", "105935.320000", "105936.827500", "105938.332500", "105939.837500", "105941.345000", "105942.850000", "105944.357500", "105945.862500", "105947.367500", "105948.875000", "105950.380000", "105951.887500", "105953.392500", "105954.897500", "105956.405000", "105957.910000", "105959.417500", "110000.922500", "110002.430000", "110003.935000", "110005.440000", "110006.947500", "110008.452500", "110009.960000", "110011.465000", "110012.970000", "110014.477500", "110015.982500", "110017.490000", "110018.995000", "110020.500000", "110022.007500", "110023.512500", "110025.020000", "110026.525000", "110028.030000", "110029.537500", "110031.042500", "110032.550000", "110034.055000", "110035.562500", "110037.067500", "110038.572500", "110040.080000", "110041.585000", "110043.092500", "110044.597500", "110046.102500", "110047.610000", "110049.115000", "110050.622500", "110052.127500", "110053.632500", "110055.140000", "110056.645000", "110058.152500", "110059.657500", "110101.162500", "110102.670000", "110104.175000", "110105.682500", "110107.187500", "110108.695000", "110110.200000", "110111.705000", "110113.212500", "110114.717500", "110116.225000", "110117.730000", "110119.235000", "110120.742500", "110122.247500", "110123.755000", "110125.260000", "110126.765000", "110128.272500", "110129.777500", "110131.285000", "110132.790000", "110134.297500", "110135.802500", "110137.307500", "110138.815000", "110140.320000", "110141.827500", "110143.332500", "110144.837500", "110146.345000", "110147.850000", "110149.357500", "110150.862500", "110152.367500", "110153.875000", "110155.380000", "110156.887500", "110158.392500", "110159.897500", "110201.405000", "110202.910000", "110204.417500", "110205.922500", "110207.430000", "110208.935000", "110210.440000", "110211.947500", "110213.452500", "110214.960000", "110216.465000", "110217.970000", "110219.477500", "110220.982500", "110222.490000", "110223.995000", "110225.500000", "110227.007500", "110228.512500", "110230.020000", "110231.525000", "110233.030000", "110234.537500", "110236.042500", "110237.550000", "110239.055000", "110240.562500", "110242.067500", "110243.572500", "110245.080000", "110246.585000", "110248.092500", "110249.597500", "110251.102500", "110252.610000", "110254.115000", "110255.622500", "110257.127500", "110258.632500", "110300.140000", "110301.645000", "110303.152500", "110304.657500", "110306.162500", "110307.670000", "110309.175000", "110310.682500", "110312.187500", "110313.695000", "110315.200000", "110316.705000", "110318.212500", "110319.717500", "110321.225000", "110322.730000", "110324.235000", "110325.742500", "110327.247500", "110328.755000", "110330.260000", "110331.765000", "110333.272500", "110334.777500", "110336.285000", "110337.790000", "110339.297500", "110340.802500", "110342.307500", "110343.815000", "110345.320000", "110346.827500", "110348.332500", "110349.837500", "110351.345000", "110352.850000", "110354.357500", "110355.862500", "110357.367500", "110358.875000", "110400.380000", "110401.887500", "110403.392500", "110404.897500", "110406.405000", "110407.910000", "110409.417500", "110410.922500", "110412.430000", "110413.935000", "110415.440000", "110416.947500", "110418.452500", "110419.960000", "110421.465000", "110422.970000", "110424.477500", "110425.982500", "110427.490000", "110428.995000", "110430.500000", "110432.007500", "110433.512500", "110435.020000", "110436.525000", "110438.030000", "110439.537500", "110441.042500", "110442.550000", "110444.055000", "110445.562500", "110447.067500", "110448.572500", "110450.080000", "110451.585000", "110453.092500", "110454.597500", "110456.102500", "110457.610000", "110459.115000", "110500.622500", "110502.127500", "110503.632500", "110505.140000", "110506.645000", "110508.152500", "110509.657500", "110511.162500", "110512.670000", "110514.175000", "110515.682500", "110517.187500", "110518.695000", "110520.200000", "110521.705000", "110523.212500", "110524.717500", "110526.225000", "110527.730000", "110529.235000", "110530.742500", "110532.247500", "110533.755000", "110535.260000", "110536.765000", "110538.272500", "110539.777500", "110541.285000", "110542.790000", "110544.297500", "110545.802500", "110547.307500", "110548.815000", "110550.320000", "110551.827500", "110553.332500", "110554.837500", "110556.345000", "110557.850000", "110559.357500", "110600.862500", "110602.367500", "110603.875000", "110605.380000", "110606.887500", "110608.392500", "110609.897500", "110611.405000", "110612.910000", "110614.417500", "110615.922500", "110617.430000", "110618.935000", "110620.440000", "110621.947500", "110623.452500", "110624.960000", "110626.465000", "110627.970000", "110629.477500", "110630.982500", "110632.490000", "110633.995000", "110635.500000", "110637.007500", "110638.512500"],
      "ContentTime": ["110640.109000", "110740.093000", "110740.093000", "110740.093000", "110740.109000", "110740.109000", "110740.109000", "110740.109000", "110740.125000", "110740.125000", "110740.125000", "110740.125000", "110740.125000", "110740.125000", "110740.125000", "110740.125000", "110740.125000", "110740.140000", "110740.140000", "110740.140000", "110740.140000", "110740.140000", "110740.140000", "110740.140000", "110740.140000", "110740.140000", "110740.156000", "110840.093000", "110840.093000", "110840.093000", "110840.109000", "110840.109000", "110840.109000", "110840.109000", "110840.109000", "110840.125000", "110840.125000", "110840.125000", "110840.125000", "110840.125000", "110840.125000", "110840.125000", "110840.125000", "110840.125000", "110840.140000", "110840.140000", "110840.140000", "110840.140000", "110840.140000", "110840.140000", "110840.140000", "110840.156000", "110840.156000", "110940.093000", "110940.093000", "110940.093000", "110940.109000", "110940.109000", "110940.109000", "110940.109000", "110940.125000", "110940.125000", "110940.125000", "110940.125000", "110940.125000", "110940.125000", "110940.125000", "110940.125000", "110940.140000", "110940.140000", "110940.140000", "110940.140000", "110940.140000", "110940.140000", "110940.140000", "110940.140000", "110940.140000", "110940.156000", "110940.156000", "111040.093000", "111040.093000", "111040.093000", "111040.109000", "111040.109000", "111040.109000", "111040.125000", "111040.125000", "111040.125000", "111040.125000", "111040.125000", "111040.125000", "111040.140000", "111040.140000", "111040.140000", "111040.140000", "111040.140000", "111040.140000", "111040.140000", "111040.140000", "111040.140000", "111040.156000", "111040.156000", "111040.156000", "111040.156000", "111040.156000", "111100.093000", "111100.109000", "111100.109000", "111100.109000", "111100.125000", "111100.125000", "111100.125000", "111100.125000", "111100.125000", "111200.093000", "111200.093000", "111200.109000", "111200.109000", "111200.109000", "111200.109000", "111200.109000", "111200.125000", "111200.125000", "111200.125000", "111200.125000", "111200.125000", "111200.125000", "111200.125000", "111200.125000", "111200.125000", "111200.140000", "111200.140000", "111200.140000", "111200.140000", "111200.140000", "111200.140000", "111200.140000", "111200.140000", "111200.140000", "111200.156000", "111300.093000", "111300.093000", "111300.093000", "111300.109000", "111300.109000", "111300.109000", "111300.109000", "111300.109000", "111300.109000", "111300.109000", "111300.109000", "111300.109000", "111300.125000", "111300.125000", "111300.125000", "111300.125000", "111300.125000", "111300.125000", "111300.125000", "111300.125000", "111300.125000", "111300.140000", "111300.140000", "111300.140000", "111300.156000", "111400.093000", "111400.093000", "111400.093000", "111400.109000", "111400.109000", "111400.109000", "111400.109000", "111400.109000", "111400.109000", "111400.109000", "111400.109000", "111400.109000", "111400.125000", "111400.125000", "111400.125000", "111400.125000", "111400.125000", "111400.125000", "111400.125000", "111400.125000", "111400.125000", "111400.140000", "111400.140000", "111400.140000", "111400.140000", "111400.140000", "111500.093000", "111500.093000", "111500.093000", "111500.109000", "111500.109000", "111500.109000", "111500.109000", "111500.109000", "111500.109000", "111500.125000", "111500.125000", "111500.125000", "111500.125000", "111500.125000", "111500.125000", "111500.125000", "111500.125000", "111500.125000", "111500.140000", "111500.140000", "111500.140000", "111500.140000", "111500.140000", "111500.156000", "111500.156000", "111500.156000", "111600.093000", "111600.109000", "111600.109000", "111600.109000", "111600.125000", "111600.125000", "111600.125000", "111600.125000", "111600.125000", "111600.125000", "111600.125000", "111600.125000", "111600.125000", "111600.140000", "111600.140000", "111600.140000", "111600.140000", "111600.140000", "111600.140000", "111600.140000", "111600.140000", "111600.156000", "111600.156000", "111600.156000", "111600.156000", "111600.171000", "111700.093000", "111700.093000", "111700.093000", "111700.109000", "111700.109000", "111700.109000", "111700.109000", "111700.109000", "111700.125000", "111700.125000", "111700.125000", "111700.125000", "111700.140000", "111700.140000", "111700.140000", "111700.140000", "111700.140000", "111700.140000", "111700.140000", "111700.140000", "111700.140000", "111700.156000", "111700.156000", "111700.156000", "111700.156000", "111700.156000", "111700.156000", "111800.093000", "111800.093000", "111800.093000", "111800.109000", "111800.109000", "111800.109000", "111800.109000", "111800.109000", "111800.125000", "111800.125000", "111800.125000", "111800.125000", "111800.125000", "111800.125000", "111800.125000", "111800.125000", "111800.125000", "111800.140000", "111800.140000", "111800.140000", "111800.140000", "111800.140000", "111800.156000", "111800.156000", "111800.171000", "111900.093000", "111900.093000", "111900.093000", "111900.109000", "111900.109000", "111900.109000", "111900.109000", "111900.109000", "111900.109000", "111900.109000", "111900.109000", "111900.109000", "111900.125000", "111900.125000", "111900.125000", "111900.125000", "111900.140000", "111900.140000", "111900.140000", "111900.140000", "111900.140000", "111900.140000", "111900.140000", "111900.156000", "111900.156000", "111900.156000", "112000.093000", "112000.093000", "112000.093000", "112000.109000", "112000.109000", "112000.109000", "112000.109000", "112000.109000", "112000.109000", "112000.109000", "112000.109000", "112000.109000", "112000.125000", "112000.125000", "112000.125000", "112000.328000", "112000.328000", "112000.343000", "112000.343000", "112000.343000", "112000.343000", "112000.343000", "112000.359000", "112000.359000", "112000.359000", "112000.359000", "112022.187000", "112022.187000", "112022.187000", "112022.187000", "112022.187000", "112022.187000", "112022.187000", "112022.187000", "112022.203000", "112022.203000"],
      "DataSetTrailingPadding": [
        "\u0000\u0000\u0000\u0000\u0000\u0000\u0000\u0000\u0000\u0000\u0000\u0000\u0000\u0000\u0000\u0000\u0000\u0000\u0000\u0000\u0000\u0000\u0000\u0000\u0000\u0000\u0000\u0000\u0000\u0000",
        "\u0000\u0000\u0000\u0000\u0000\u0000\u0000\u0000\u0000\u0000\u0000\u0000\u0000\u0000\u0000\u0000\u0000\u0000\u0000\u0000\u0000\u0000\u0000\u0000\u0000\u0000\u0000\u0000\u0000\u0000",
        "\u0000\u0000\u0000\u0000\u0000\u0000\u0000\u0000\u0000\u0000\u0000\u0000\u0000\u0000\u0000\u0000\u0000\u0000\u0000\u0000\u0000\u0000\u0000\u0000\u0000\u0000\u0000\u0000",
        "\u0000\u0000\u0000\u0000\u0000\u0000\u0000\u0000\u0000\u0000\u0000\u0000\u0000\u0000\u0000\u0000\u0000\u0000\u0000\u0000\u0000\u0000\u0000\u0000\u0000\u0000\u0000\u0000",
        "\u0000\u0000\u0000\u0000\u0000\u0000\u0000\u0000\u0000\u0000\u0000\u0000\u0000\u0000\u0000\u0000\u0000\u0000\u0000\u0000\u0000\u0000\u0000\u0000\u0000\u0000\u0000\u0000\u0000\u0000",
        "\u0000\u0000\u0000\u0000\u0000\u0000\u0000\u0000\u0000\u0000\u0000\u0000\u0000\u0000\u0000\u0000\u0000\u0000\u0000\u0000\u0000\u0000\u0000\u0000\u0000\u0000\u0000\u0000\u0000\u0000",
        "\u0000\u0000\u0000\u0000\u0000\u0000\u0000\u0000\u0000\u0000\u0000\u0000\u0000\u0000\u0000\u0000\u0000\u0000\u0000\u0000\u0000\u0000\u0000\u0000\u0000\u0000\u0000\u0000\u0000\u0000\u0000\u0000",
        "\u0000\u0000\u0000\u0000\u0000\u0000\u0000\u0000\u0000\u0000\u0000\u0000\u0000\u0000\u0000\u0000\u0000\u0000\u0000\u0000\u0000\u0000\u0000\u0000\u0000\u0000\u0000\u0000",
        "\u0000\u0000\u0000\u0000\u0000\u0000\u0000\u0000\u0000\u0000\u0000\u0000\u0000\u0000\u0000\u0000\u0000\u0000\u0000\u0000\u0000\u0000\u0000\u0000\u0000\u0000\u0000\u0000",
        "\u0000\u0000\u0000\u0000\u0000\u0000\u0000\u0000\u0000\u0000\u0000\u0000\u0000\u0000\u0000\u0000\u0000\u0000\u0000\u0000\u0000\u0000\u0000\u0000\u0000\u0000",
        "\u0000\u0000\u0000\u0000\u0000\u0000\u0000\u0000\u0000\u0000\u0000\u0000\u0000\u0000\u0000\u0000\u0000\u0000\u0000\u0000\u0000\u0000\u0000\u0000\u0000\u0000\u0000\u0000",
        "\u0000\u0000\u0000\u0000\u0000\u0000\u0000\u0000\u0000\u0000\u0000\u0000\u0000\u0000\u0000\u0000\u0000\u0000\u0000\u0000\u0000\u0000\u0000\u0000",
        "\u0000\u0000\u0000\u0000\u0000\u0000\u0000\u0000\u0000\u0000\u0000\u0000\u0000\u0000\u0000\u0000\u0000\u0000\u0000\u0000\u0000\u0000\u0000\u0000",
        "\u0000\u0000\u0000\u0000\u0000\u0000\u0000\u0000\u0000\u0000\u0000\u0000\u0000\u0000\u0000\u0000\u0000\u0000\u0000\u0000\u0000\u0000\u0000\u0000",
        "\u0000\u0000\u0000\u0000\u0000\u0000\u0000\u0000\u0000\u0000\u0000\u0000\u0000\u0000\u0000\u0000\u0000\u0000\u0000\u0000\u0000\u0000\u0000\u0000\u0000\u0000",
        "\u0000\u0000\u0000\u0000\u0000\u0000\u0000\u0000\u0000\u0000\u0000\u0000\u0000\u0000\u0000\u0000\u0000\u0000\u0000\u0000\u0000\u0000\u0000\u0000\u0000\u0000",
        "\u0000\u0000\u0000\u0000\u0000\u0000\u0000\u0000\u0000\u0000\u0000\u0000\u0000\u0000\u0000\u0000\u0000\u0000\u0000\u0000\u0000\u0000\u0000\u0000",
        "\u0000\u0000\u0000\u0000\u0000\u0000\u0000\u0000\u0000\u0000\u0000\u0000\u0000\u0000\u0000\u0000\u0000\u0000\u0000\u0000\u0000\u0000\u0000\u0000",
        "\u0000\u0000\u0000\u0000\u0000\u0000\u0000\u0000\u0000\u0000\u0000\u0000\u0000\u0000\u0000\u0000\u0000\u0000\u0000\u0000\u0000\u0000\u0000\u0000",
        "\u0000\u0000\u0000\u0000\u0000\u0000\u0000\u0000\u0000\u0000\u0000\u0000\u0000\u0000\u0000\u0000\u0000\u0000\u0000\u0000\u0000\u0000\u0000\u0000\u0000\u0000",
        "\u0000\u0000\u0000\u0000\u0000\u0000\u0000\u0000\u0000\u0000\u0000\u0000\u0000\u0000\u0000\u0000\u0000\u0000\u0000\u0000\u0000\u0000\u0000\u0000\u0000\u0000",
        "\u0000\u0000\u0000\u0000\u0000\u0000\u0000\u0000\u0000\u0000\u0000\u0000\u0000\u0000\u0000\u0000\u0000\u0000\u0000\u0000\u0000\u0000\u0000\u0000",
        "\u0000\u0000\u0000\u0000\u0000\u0000\u0000\u0000\u0000\u0000\u0000\u0000\u0000\u0000\u0000\u0000\u0000\u0000\u0000\u0000\u0000\u0000\u0000\u0000",
        "\u0000\u0000\u0000\u0000\u0000\u0000\u0000\u0000\u0000\u0000\u0000\u0000\u0000\u0000\u0000\u0000\u0000\u0000\u0000\u0000\u0000\u0000\u0000\u0000",
        "\u0000\u0000\u0000\u0000\u0000\u0000\u0000\u0000\u0000\u0000\u0000\u0000\u0000\u0000\u0000\u0000\u0000\u0000\u0000\u0000\u0000\u0000\u0000\u0000\u0000\u0000",
        "\u0000\u0000\u0000\u0000\u0000\u0000\u0000\u0000\u0000\u0000\u0000\u0000\u0000\u0000\u0000\u0000\u0000\u0000\u0000\u0000\u0000\u0000\u0000\u0000\u0000\u0000",
        "\u0000\u0000\u0000\u0000\u0000\u0000\u0000\u0000\u0000\u0000\u0000\u0000\u0000\u0000\u0000\u0000\u0000\u0000\u0000\u0000\u0000\u0000\u0000\u0000",
        "\u0000\u0000\u0000\u0000\u0000\u0000\u0000\u0000\u0000\u0000\u0000\u0000\u0000\u0000\u0000\u0000\u0000\u0000\u0000\u0000\u0000\u0000\u0000\u0000",
        "\u0000\u0000\u0000\u0000\u0000\u0000\u0000\u0000\u0000\u0000\u0000\u0000\u0000\u0000\u0000\u0000\u0000\u0000\u0000\u0000\u0000\u0000\u0000\u0000\u0000\u0000",
        "\u0000\u0000\u0000\u0000\u0000\u0000\u0000\u0000\u0000\u0000\u0000\u0000\u0000\u0000\u0000\u0000\u0000\u0000\u0000\u0000\u0000\u0000\u0000\u0000\u0000\u0000",
        "\u0000\u0000\u0000\u0000\u0000\u0000\u0000\u0000\u0000\u0000\u0000\u0000\u0000\u0000\u0000\u0000\u0000\u0000\u0000\u0000\u0000\u0000\u0000\u0000\u0000\u0000",
        "\u0000\u0000\u0000\u0000\u0000\u0000\u0000\u0000\u0000\u0000\u0000\u0000\u0000\u0000\u0000\u0000\u0000\u0000\u0000\u0000\u0000\u0000\u0000\u0000",
        "\u0000\u0000\u0000\u0000\u0000\u0000\u0000\u0000\u0000\u0000\u0000\u0000\u0000\u0000\u0000\u0000\u0000\u0000\u0000\u0000\u0000\u0000\u0000\u0000\u0000\u0000",
        "\u0000\u0000\u0000\u0000\u0000\u0000\u0000\u0000\u0000\u0000\u0000\u0000\u0000\u0000\u0000\u0000\u0000\u0000\u0000\u0000\u0000\u0000\u0000\u0000\u0000\u0000",
        "\u0000\u0000\u0000\u0000\u0000\u0000\u0000\u0000\u0000\u0000\u0000\u0000\u0000\u0000\u0000\u0000\u0000\u0000\u0000\u0000\u0000\u0000\u0000\u0000\u0000\u0000",
        "\u0000\u0000\u0000\u0000\u0000\u0000\u0000\u0000\u0000\u0000\u0000\u0000\u0000\u0000\u0000\u0000\u0000\u0000\u0000\u0000\u0000\u0000\u0000\u0000\u0000\u0000",
        "\u0000\u0000\u0000\u0000\u0000\u0000\u0000\u0000\u0000\u0000\u0000\u0000\u0000\u0000\u0000\u0000\u0000\u0000\u0000\u0000\u0000\u0000\u0000\u0000",
        "\u0000\u0000\u0000\u0000\u0000\u0000\u0000\u0000\u0000\u0000\u0000\u0000\u0000\u0000\u0000\u0000\u0000\u0000\u0000\u0000\u0000\u0000\u0000\u0000",
        "\u0000\u0000\u0000\u0000\u0000\u0000\u0000\u0000\u0000\u0000\u0000\u0000\u0000\u0000\u0000\u0000\u0000\u0000\u0000\u0000\u0000\u0000\u0000\u0000\u0000\u0000",
        "\u0000\u0000\u0000\u0000\u0000\u0000\u0000\u0000\u0000\u0000\u0000\u0000\u0000\u0000\u0000\u0000\u0000\u0000\u0000\u0000\u0000\u0000\u0000\u0000\u0000\u0000\u0000\u0000",
        "\u0000\u0000\u0000\u0000\u0000\u0000\u0000\u0000\u0000\u0000\u0000\u0000\u0000\u0000\u0000\u0000\u0000\u0000\u0000\u0000\u0000\u0000\u0000\u0000\u0000\u0000",
        "\u0000\u0000\u0000\u0000\u0000\u0000\u0000\u0000\u0000\u0000\u0000\u0000\u0000\u0000\u0000\u0000\u0000\u0000\u0000\u0000\u0000\u0000\u0000\u0000",
        "\u0000\u0000\u0000\u0000\u0000\u0000\u0000\u0000\u0000\u0000\u0000\u0000\u0000\u0000\u0000\u0000\u0000\u0000\u0000\u0000\u0000\u0000\u0000\u0000",
        "\u0000\u0000\u0000\u0000\u0000\u0000\u0000\u0000\u0000\u0000\u0000\u0000\u0000\u0000\u0000\u0000\u0000\u0000\u0000\u0000\u0000\u0000\u0000\u0000\u0000\u0000",
        "\u0000\u0000\u0000\u0000\u0000\u0000\u0000\u0000\u0000\u0000\u0000\u0000\u0000\u0000\u0000\u0000\u0000\u0000\u0000\u0000\u0000\u0000\u0000\u0000\u0000\u0000",
        "\u0000\u0000\u0000\u0000\u0000\u0000\u0000\u0000\u0000\u0000\u0000\u0000\u0000\u0000\u0000\u0000\u0000\u0000\u0000\u0000\u0000\u0000\u0000\u0000\u0000\u0000",
        "\u0000\u0000\u0000\u0000\u0000\u0000\u0000\u0000\u0000\u0000\u0000\u0000\u0000\u0000\u0000\u0000\u0000\u0000\u0000\u0000\u0000\u0000\u0000\u0000",
        "\u0000\u0000\u0000\u0000\u0000\u0000\u0000\u0000\u0000\u0000\u0000\u0000\u0000\u0000\u0000\u0000\u0000\u0000\u0000\u0000\u0000\u0000\u0000\u0000",
        "\u0000\u0000\u0000\u0000\u0000\u0000\u0000\u0000\u0000\u0000\u0000\u0000\u0000\u0000\u0000\u0000\u0000\u0000\u0000\u0000\u0000\u0000\u0000\u0000\u0000\u0000",
        "\u0000\u0000\u0000\u0000\u0000\u0000\u0000\u0000\u0000\u0000\u0000\u0000\u0000\u0000\u0000\u0000\u0000\u0000\u0000\u0000\u0000\u0000\u0000\u0000\u0000\u0000",
        "\u0000\u0000\u0000\u0000\u0000\u0000\u0000\u0000\u0000\u0000\u0000\u0000\u0000\u0000\u0000\u0000\u0000\u0000\u0000\u0000\u0000\u0000\u0000\u0000",
        "\u0000\u0000\u0000\u0000\u0000\u0000\u0000\u0000\u0000\u0000\u0000\u0000\u0000\u0000\u0000\u0000\u0000\u0000\u0000\u0000\u0000\u0000\u0000\u0000",
        "\u0000\u0000\u0000\u0000\u0000\u0000\u0000\u0000\u0000\u0000\u0000\u0000\u0000\u0000\u0000\u0000\u0000\u0000\u0000\u0000\u0000\u0000\u0000\u0000",
        "\u0000\u0000\u0000\u0000\u0000\u0000\u0000\u0000\u0000\u0000\u0000\u0000\u0000\u0000\u0000\u0000\u0000\u0000\u0000\u0000\u0000\u0000\u0000\u0000\u0000\u0000",
        "\u0000\u0000\u0000\u0000\u0000\u0000\u0000\u0000\u0000\u0000\u0000\u0000\u0000\u0000\u0000\u0000\u0000\u0000\u0000\u0000\u0000\u0000\u0000\u0000\u0000\u0000",
        "\u0000\u0000\u0000\u0000\u0000\u0000\u0000\u0000\u0000\u0000\u0000\u0000\u0000\u0000\u0000\u0000\u0000\u0000\u0000\u0000\u0000\u0000\u0000\u0000",
        "\u0000\u0000\u0000\u0000\u0000\u0000\u0000\u0000\u0000\u0000\u0000\u0000\u0000\u0000\u0000\u0000\u0000\u0000\u0000\u0000",
        "\u0000\u0000\u0000\u0000\u0000\u0000\u0000\u0000\u0000\u0000\u0000\u0000\u0000\u0000\u0000\u0000\u0000\u0000\u0000\u0000",
        "\u0000\u0000\u0000\u0000\u0000\u0000\u0000\u0000\u0000\u0000\u0000\u0000\u0000\u0000\u0000\u0000\u0000\u0000\u0000\u0000",
        "\u0000\u0000\u0000\u0000\u0000\u0000\u0000\u0000\u0000\u0000\u0000\u0000\u0000\u0000\u0000\u0000\u0000\u0000\u0000\u0000\u0000\u0000",
        "\u0000\u0000\u0000\u0000\u0000\u0000\u0000\u0000\u0000\u0000\u0000\u0000\u0000\u0000\u0000\u0000\u0000\u0000\u0000\u0000",
        "\u0000\u0000\u0000\u0000\u0000\u0000\u0000\u0000\u0000\u0000\u0000\u0000\u0000\u0000\u0000\u0000\u0000\u0000\u0000\u0000",
        "\u0000\u0000\u0000\u0000\u0000\u0000\u0000\u0000\u0000\u0000\u0000\u0000\u0000\u0000\u0000\u0000\u0000\u0000\u0000\u0000",
        "\u0000\u0000\u0000\u0000\u0000\u0000\u0000\u0000\u0000\u0000\u0000\u0000\u0000\u0000\u0000\u0000\u0000\u0000\u0000\u0000",
