{
  "AcquisitionMatrixPE": 110,
  "AcquisitionNumber": 1,
  "AcquisitionTime": "16:38:48.415000",
  "BandwidthPerPixelPhaseEncode": 26.35,
  "BaseResolution": 110,
  "CoilString": "C:HEA;HEP",
  "ConversionSoftware": "dcm2niix",
  "ConversionSoftwareVersion": "v1.0.20190410  GCC6.3.0",
  "DerivedVendorReportedEchoSpacing": 0.000690012,
  "DeviceSerialNumber": "35422",
  "DwellTime": 2.6e-06,
  "EchoTime": 0.03,
  "EffectiveEchoSpacing": 0.000345006,
  "FlipAngle": 85,
  "ImageComments": "Unaliased_MB4_PE4_LB",
  "ImageOrientationPatientDICOM": [0.999205, 0.0098256, 0.0386375, 4.5341e-10, 0.969154, -0.246458],
  "ImageType": [
    "ORIGINAL",
    "PRIMARY",
    "FMRI",
    "NONE",
    "MB",
    "ND",
    "MOSAIC"
],
  "ImagingFrequency": 123.177,
  "InPlanePhaseEncodingDirectionDICOM": "ROW",
  "InstitutionAddress": "kwanakro_599_C4F276_Seoul_KR_ZIP",
  "InstitutionName": "SNUBIC",
  "InstitutionalDepartmentName": "Department",
  "MRAcquisitionType": "2D",
  "MagneticFieldStrength": 3,
  "Manufacturer": "Siemens",
  "ManufacturersModelName": "TrioTim",
  "Modality": "MR",
  "MultibandAccelerationFactor": 4,
  "ParallelReductionFactorInPlane": 2,
  "PartialFourier": 1,
  "PatientPosition": "HFS",
  "PercentPhaseFOV": 100,
  "PhaseEncodingDirection": "i-",
  "PhaseEncodingSteps": 110,
  "PhaseResolution": 1,
  "PixelBandwidth": 1748,
  "ProcedureStepDescription": "SNU_SAVED",
  "ProtocolName": "WMGNG2_MB4_LR_SBRef",
  "PulseSequenceDetails": "%CustomerSeq%_cmrr_mbep2d_bold",
  "ReceiveCoilName": "32Ch_Head",
  "ReconMatrixPE": 110,
  "RefLinesPE": 32,
  "RepetitionTime": 1.5,
  "SAR": 0.0981114,
  "ScanOptions": "FS",
  "ScanningSequence": "EP",
  "SequenceName": "epfid2d1_110",
  "SequenceVariant": "SK_SS",
  "SeriesDescription": "WMGNG2_MB4_LR_SBRef",
  "SeriesNumber": 18,
  "ShimSetting": [-4146, -29774, -2120, 648, -95, 406, -29, -5],
  "SliceThickness": 2.3,
  "SliceTiming": [0, 0.66, 1.3175, 0.4725, 1.13, 0.2825, 0.9425, 0.095, 0.755, 1.4125, 0.565, 1.225, 0.3775, 1.035, 0.19, 0.8475, 0, 0.66, 1.3175, 0.4725, 1.13, 0.2825, 0.9425, 0.095, 0.755, 1.4125, 0.565, 1.225, 0.3775, 1.035, 0.19, 0.8475, 0, 0.66, 1.3175, 0.4725, 1.13, 0.2825, 0.9425, 0.095, 0.755, 1.4125, 0.565, 1.225, 0.3775, 1.035, 0.19, 0.8475, 0, 0.66, 1.3175, 0.4725, 1.13, 0.2825, 0.9425, 0.095, 0.755, 1.4125, 0.565, 1.225, 0.3775, 1.035, 0.19, 0.8475],
  "SoftwareVersions": "syngo_MR_B17",
  "SpacingBetweenSlices": 2.3,
  "StationName": "MRC35422",
  "TaskName": "wmgng",
  "TotalReadoutTime": 0.0376057,
  "TxRefAmp": 315.149,
  "dcmmeta_affine": [
    [-2.325422525405884, 1.0552080320636037e-09, 0.09169477224349976, 131.90101623535156],
    [-0.022866839542984962, 2.2554845809936523, -0.5664017796516418, -96.10017395019531],
    [0.0899200588464737, 0.5735739469528198, 2.227281093597412, -101.67701721191406],
    [0.0, 0.0, 0.0, 1.0]
],
  "dcmmeta_reorient_transform": [
    [0.0, -1.0, 0.0, 109.0],
    [1.0, 0.0, 0.0, 0.0],
    [0.0, 0.0, 1.0, 0.0],
    [0.0, 0.0, 0.0, 1.0]
],
  "dcmmeta_shape": [110, 110, 64, 357],
  "dcmmeta_slice_dim": 2,
  "dcmmeta_version": 0.6,
  "global": {
    "const": {
      "AcquisitionMatrix": [0, 110, 110, 0],
      "AngioFlag": "N",
      "BitsAllocated": 16,
      "BitsStored": 12,
      "Columns": 880,
      "EchoNumbers": 1,
      "EchoTime": 30.0,
      "EchoTrainLength": 1,
      "FlipAngle": 85.0,
      "HighBit": 11,
      "ImageOrientationPatient": [0.99920498352589, 0.00982559528756, 0.03863752805592, 4.534097e-10, 0.9691535820494, -0.246457571198],
      "ImagePositionPatient": [-1027.188657832, -1026.912967917, 147.04929458736],
      "ImageType": [
        "ORIGINAL",
        "PRIMARY",
        "FMRI",
        "NONE",
        "MB",
        "ND",
        "MOSAIC"
],
      "ImagedNucleus": "1H",
      "ImagingFrequency": 123.177395,
      "InPlanePhaseEncodingDirection": "ROW",
      "MRAcquisitionType": "2D",
      "MagneticFieldStrength": 3.0,
      "Manufacturer": "SIEMENS",
      "ManufacturerModelName": "TrioTim",
      "Modality": "MR",
      "NumberOfAverages": 1.0,
      "NumberOfPhaseEncodingSteps": 110,
      "PercentPhaseFieldOfView": 100.0,
      "PercentSampling": 100.0,
      "PerformedProcedureStepStartTime": "155304.703000",
      "PhotometricInterpretation": "MONOCHROME2",
      "PixelBandwidth": 1748.0,
      "PixelRepresentation": 0,
      "PixelSpacing": [2.3272726535797, 2.3272726535797],
      "ProtocolName": "WMGNG2_MB4_LR_SBRef",
      "ReferencedPerformedProcedureStepSequence": [
        {
          "ReferencedSOPClassUID": "1.2.840.10008.3.1.2.3.3",
          "ReferencedSOPInstanceUID": "1.3.12.2.1107.5.2.32.35422.30000020021100374754600000003"}
],
      "RepetitionTime": 1500.0,
      "Rows": 880,
      "SAR": 0.09811143893213,
      "SamplesPerPixel": 1,
      "ScanOptions": "FS",
      "ScanningSequence": "EP",
      "SequenceName": "epfid2d1_110",
      "SequenceVariant": [
        "SK",
        "SS"
],
      "SeriesDescription": "WMGNG2_MB4_LR_SBRef",
      "SeriesNumber": 18,
      "SeriesTime": "165042.328000",
      "SliceLocation": -69.537985497125,
      "SliceThickness": 2.2999999523163,
      "SmallestImagePixelValue": 0,
      "SoftwareVersions": "syngo MR B17",
      "SpacingBetweenSlices": 2.3000000144197,
      "SpecificCharacterSet": "ISO_IR 100",
      "StudyID": "1",
      "StudyTime": "155304.640000",
      "TransmitCoilName": "Body",
      "VariableFlipAngleFlag": "N",
      "WindowCenterWidthExplanation": "Algo1",
      "dBdt": 0.0},
    "slices": {}
  },
  "time": {
    "samples": {
      "AcquisitionNumber": [1, 2, 3, 4, 5, 6, 7, 8, 9, 10, 11, 12, 13, 14, 15, 16, 17, 18, 19, 20, 21, 22, 23, 24, 25, 26, 27, 28, 29, 30, 31, 32, 33, 34, 35, 36, 37, 38, 39, 40, 41, 42, 43, 44, 45, 46, 47, 48, 49, 50, 51, 52, 53, 54, 55, 56, 57, 58, 59, 60, 61, 62, 63, 64, 65, 66, 67, 68, 69, 70, 71, 72, 73, 74, 75, 76, 77, 78, 79, 80, 81, 82, 83, 84, 85, 86, 87, 88, 89, 90, 91, 92, 93, 94, 95, 96, 97, 98, 99, 100, 101, 102, 103, 104, 105, 106, 107, 108, 109, 110, 111, 112, 113, 114, 115, 116, 117, 118, 119, 120, 121, 122, 123, 124, 125, 126, 127, 128, 129, 130, 131, 132, 133, 134, 135, 136, 137, 138, 139, 140, 141, 142, 143, 144, 145, 146, 147, 148, 149, 150, 151, 152, 153, 154, 155, 156, 157, 158, 159, 160, 161, 162, 163, 164, 165, 166, 167, 168, 169, 170, 171, 172, 173, 174, 175, 176, 177, 178, 179, 180, 181, 182, 183, 184, 185, 186, 187, 188, 189, 190, 191, 192, 193, 194, 195, 196, 197, 198, 199, 200, 201, 202, 203, 204, 205, 206, 207, 208, 209, 210, 211, 212, 213, 214, 215, 216, 217, 218, 219, 220, 221, 222, 223, 224, 225, 226, 227, 228, 229, 230, 231, 232, 233, 234, 235, 236, 237, 238, 239, 240, 241, 242, 243, 244, 245, 246, 247, 248, 249, 250, 251, 252, 253, 254, 255, 256, 257, 258, 259, 260, 261, 262, 263, 264, 265, 266, 267, 268, 269, 270, 271, 272, 273, 274, 275, 276, 277, 278, 279, 280, 281, 282, 283, 284, 285, 286, 287, 288, 289, 290, 291, 292, 293, 294, 295, 296, 297, 298, 299, 300, 301, 302, 303, 304, 305, 306, 307, 308, 309, 310, 311, 312, 313, 314, 315, 316, 317, 318, 319, 320, 321, 322, 323, 324, 325, 326, 327, 328, 329, 330, 331, 332, 333, 334, 335, 336, 337, 338, 339, 340, 341, 342, 343, 344, 345, 346, 347, 348, 349, 350, 351, 352, 353, 354, 355, 356, 357],
      "AcquisitionTime": ["163848.415000", "163849.922500", "163851.427500", "163852.935000", "163854.440000", "163855.945000", "163857.452500", "163858.957500", "163900.465000", "163901.970000", "163903.477500", "163904.982500", "163906.487500", "163907.995000", "163909.500000", "163911.007500", "163912.512500", "163914.017500", "163915.525000", "163917.030000", "163918.537500", "163920.042500", "163921.547500", "163923.055000", "163924.560000", "163926.067500", "163927.572500", "163929.077500", "163930.585000", "163932.090000", "163933.597500", "163935.102500", "163936.610000", "163938.115000", "163939.620000", "163941.127500", "163942.632500", "163944.140000", "163945.645000", "163947.150000", "163948.657500", "163950.162500", "163951.670000", "163953.175000", "163954.680000", "163956.187500", "163957.692500", "163959.200000", "164000.705000", "164002.212500", "164003.717500", "164005.222500", "164006.730000", "164008.235000", "164009.742500", "164011.247500", "164012.752500", "164014.260000", "164015.765000", "164017.272500", "164018.777500", "164020.282500", "164021.790000", "164023.295000", "164024.802500", "164026.307500", "164027.812500", "164029.320000", "164030.825000", "164032.332500", "164033.837500", "164035.345000", "164036.850000", "164038.355000", "164039.862500", "164041.367500", "164042.875000", "164044.380000", "164045.885000", "164047.392500", "164048.897500", "164050.405000", "164051.910000", "164053.415000", "164054.922500", "164056.427500", "164057.935000", "164059.440000", "164100.945000", "164102.452500", "164103.957500", "164105.465000", "164106.970000", "164108.477500", "164109.982500", "164111.487500", "164112.995000", "164114.500000", "164116.007500", "164117.512500", "164119.017500", "164120.525000", "164122.030000", "164123.537500", "164125.042500", "164126.547500", "164128.055000", "164129.560000", "164131.067500", "164132.572500", "164134.077500", "164135.585000", "164137.090000", "164138.597500", "164140.102500", "164141.610000", "164143.115000", "164144.620000", "164146.127500", "164147.632500", "164149.140000", "164150.645000", "164152.150000", "164153.657500", "164155.162500", "164156.670000", "164158.175000", "164159.680000", "164201.187500", "164202.692500", "164204.200000", "164205.705000", "164207.212500", "164208.717500", "164210.222500", "164211.730000", "164213.235000", "164214.742500", "164216.247500", "164217.752500", "164219.260000", "164220.765000", "164222.272500", "164223.777500", "164225.282500", "164226.790000", "164228.295000", "164229.802500", "164231.307500", "164232.812500", "164234.320000", "164235.825000", "164237.332500", "164238.837500", "164240.345000", "164241.850000", "164243.355000", "164244.862500", "164246.367500", "164247.875000", "164249.380000", "164250.885000", "164252.392500", "164253.897500", "164255.405000", "164256.910000", "164258.415000", "164259.922500", "164301.427500", "164302.935000", "164304.440000", "164305.945000", "164307.452500", "164308.957500", "164310.465000", "164311.970000", "164313.477500", "164314.982500", "164316.487500", "164317.995000", "164319.500000", "164321.007500", "164322.512500", "164324.017500", "164325.525000", "164327.030000", "164328.537500", "164330.042500", "164331.547500", "164333.055000", "164334.560000", "164336.067500", "164337.572500", "164339.077500", "164340.585000", "164342.090000", "164343.597500", "164345.102500", "164346.610000", "164348.115000", "164349.620000", "164351.127500", "164352.632500", "164354.140000", "164355.645000", "164357.150000", "164358.657500", "164400.162500", "164401.670000", "164403.175000", "164404.680000", "164406.187500", "164407.692500", "164409.200000", "164410.705000", "164412.212500", "164413.717500", "164415.222500", "164416.730000", "164418.235000", "164419.742500", "164421.247500", "164422.752500", "164424.260000", "164425.765000", "164427.272500", "164428.777500", "164430.282500", "164431.790000", "164433.295000", "164434.802500", "164436.307500", "164437.812500", "164439.320000", "164440.825000", "164442.332500", "164443.837500", "164445.345000", "164446.850000", "164448.355000", "164449.862500", "164451.367500", "164452.875000", "164454.380000", "164455.885000", "164457.392500", "164458.897500", "164500.405000", "164501.910000", "164503.415000", "164504.922500", "164506.427500", "164507.935000", "164509.440000", "164510.945000", "164512.452500", "164513.957500", "164515.465000", "164516.970000", "164518.477500", "164519.982500", "164521.487500", "164522.995000", "164524.500000", "164526.007500", "164527.512500", "164529.017500", "164530.525000", "164532.030000", "164533.537500", "164535.042500", "164536.547500", "164538.055000", "164539.560000", "164541.067500", "164542.572500", "164544.077500", "164545.585000", "164547.090000", "164548.597500", "164550.102500", "164551.610000", "164553.115000", "164554.620000", "164556.127500", "164557.632500", "164559.140000", "164600.645000", "164602.150000", "164603.657500", "164605.162500", "164606.670000", "164608.175000", "164609.680000", "164611.187500", "164612.692500", "164614.200000", "164615.705000", "164617.212500", "164618.717500", "164620.222500", "164621.730000", "164623.235000", "164624.742500", "164626.247500", "164627.752500", "164629.260000", "164630.765000", "164632.272500", "164633.777500", "164635.282500", "164636.790000", "164638.295000", "164639.802500", "164641.307500", "164642.812500", "164644.320000", "164645.825000", "164647.332500", "164648.837500", "164650.345000", "164651.850000", "164653.355000", "164654.862500", "164656.367500", "164657.875000", "164659.380000", "164700.885000", "164702.392500", "164703.897500", "164705.405000", "164706.910000", "164708.415000", "164709.922500", "164711.427500", "164712.935000", "164714.440000", "164715.945000", "164717.452500", "164718.957500", "164720.465000", "164721.970000", "164723.477500", "164724.982500", "164726.487500", "164727.995000", "164729.500000", "164731.007500", "164732.512500", "164734.017500", "164735.525000", "164737.030000", "164738.537500", "164740.042500", "164741.547500", "164743.055000", "164744.560000"],
      "ContentTime": ["165042.328000", "165042.328000", "165042.343000", "165042.343000", "165042.343000", "165142.328000", "165142.343000", "165142.343000", "165142.343000", "165142.343000", "165142.343000", "165142.343000", "165142.343000", "165142.343000", "165142.343000", "165142.359000", "165142.359000", "165142.359000", "165142.359000", "165142.359000", "165142.359000", "165142.375000", "165142.375000", "165142.375000", "165142.375000", "165142.375000", "165142.375000", "165142.375000", "165142.390000", "165142.390000", "165142.390000", "165242.328000", "165242.328000", "165242.328000", "165242.328000", "165242.328000", "165242.343000", "165242.343000", "165242.343000", "165242.343000", "165242.343000", "165242.343000", "165242.343000", "165242.343000", "165242.343000", "165242.359000", "165242.359000", "165242.359000", "165242.359000", "165242.359000", "165242.359000", "165242.359000", "165242.359000", "165242.375000", "165242.375000", "165242.375000", "165242.375000", "165342.328000", "165342.328000", "165342.328000", "165342.328000", "165342.343000", "165342.343000", "165342.343000", "165342.343000", "165342.343000", "165342.343000", "165342.343000", "165342.343000", "165342.343000", "165342.359000", "165342.359000", "165342.359000", "165342.359000", "165342.359000", "165342.359000", "165342.375000", "165342.375000", "165342.375000", "165342.375000", "165342.375000", "165342.375000", "165342.375000", "165442.328000", "165442.328000", "165442.328000", "165442.328000", "165442.328000", "165442.328000", "165442.343000", "165442.343000", "165442.343000", "165442.343000", "165442.343000", "165442.343000", "165442.359000", "165442.359000", "165442.359000", "165442.359000", "165442.359000", "165442.359000", "165442.359000", "165442.359000", "165442.359000", "165442.375000", "165442.375000", "165442.375000", "165442.375000", "165442.375000", "165502.328000", "165502.328000", "165502.328000", "165502.328000", "165502.328000", "165502.343000", "165502.343000", "165502.343000", "165602.328000", "165602.328000", "165602.328000", "165602.328000", "165602.328000", "165602.343000", "165602.343000", "165602.343000", "165602.343000", "165602.343000", "165602.343000", "165602.359000", "165602.375000", "165602.375000", "165602.375000", "165602.375000", "165602.375000", "165602.375000", "165602.375000", "165602.375000", "165602.375000", "165602.390000", "165602.390000", "165602.390000", "165602.390000", "165602.390000", "165702.328000", "165702.328000", "165702.328000", "165702.328000", "165702.328000", "165702.343000", "165702.343000", "165702.343000", "165702.343000", "165702.343000", "165702.343000", "165702.343000", "165702.359000", "165702.359000", "165702.359000", "165702.359000", "165702.359000", "165702.359000", "165702.359000", "165702.359000", "165702.359000", "165702.375000", "165702.375000", "165702.375000", "165702.375000", "165702.375000", "165802.328000", "165802.328000", "165802.328000", "165802.328000", "165802.328000", "165802.343000", "165802.343000", "165802.343000", "165802.359000", "165802.359000", "165802.359000", "165802.359000", "165802.359000", "165802.359000", "165802.359000", "165802.359000", "165802.375000", "165802.375000", "165802.375000", "165802.375000", "165802.375000", "165802.375000", "165802.375000", "165802.375000", "165802.390000", "165902.328000", "165902.328000", "165902.328000", "165902.328000", "165902.328000", "165902.343000", "165902.343000", "165902.343000", "165902.343000", "165902.359000", "165902.359000", "165902.359000", "165902.359000", "165902.359000", "165902.375000", "165902.375000", "165902.375000", "165902.375000", "165902.375000", "165902.375000", "165902.390000", "165902.390000", "165902.390000", "165902.390000", "165902.390000", "165902.390000", "170002.328000", "170002.343000", "170002.343000", "170002.343000", "170002.343000", "170002.343000", "170002.343000", "170002.343000", "170002.343000", "170002.343000", "170002.359000", "170002.359000", "170002.359000", "170002.359000", "170002.359000", "170002.359000", "170002.359000", "170002.359000", "170002.359000", "170002.375000", "170002.375000", "170002.375000", "170002.375000", "170002.375000", "170002.375000", "170002.375000", "170102.328000", "170102.328000", "170102.328000", "170102.328000", "170102.328000", "170102.343000", "170102.343000", "170102.343000", "170102.343000", "170102.343000", "170102.343000", "170102.359000", "170102.359000", "170102.359000", "170102.359000", "170102.375000", "170102.375000", "170102.375000", "170102.375000", "170102.375000", "170102.375000", "170102.375000", "170102.390000", "170102.390000", "170102.390000", "170102.390000", "170202.328000", "170202.328000", "170202.328000", "170202.328000", "170202.328000", "170202.343000", "170202.343000", "170202.343000", "170202.343000", "170202.343000", "170202.343000", "170202.343000", "170202.343000", "170202.343000", "170202.359000", "170202.359000", "170202.359000", "170202.359000", "170202.359000", "170202.359000", "170202.359000", "170202.359000", "170202.359000", "170202.375000", "170202.375000", "170202.375000", "170302.328000", "170302.328000", "170302.328000", "170302.328000", "170302.328000", "170302.343000", "170302.343000", "170302.343000", "170302.343000", "170302.343000", "170302.343000", "170302.343000", "170302.343000", "170302.343000", "170302.359000", "170302.359000", "170302.359000", "170302.359000", "170302.359000", "170302.375000", "170302.375000", "170302.375000", "170302.375000", "170302.375000", "170302.390000", "170302.390000", "170402.328000", "170402.328000", "170402.328000", "170402.328000", "170402.343000", "170402.343000", "170402.343000", "170402.343000", "170402.359000", "170402.359000", "170402.359000", "170402.375000", "170402.375000", "170402.375000", "170402.375000", "170402.375000", "170402.375000", "170402.375000", "170402.375000", "170402.375000", "170402.390000", "170402.390000", "170402.390000", "170402.390000", "170402.390000", "170402.390000", "170402.406000", "170416.859000", "170416.859000", "170416.875000", "170416.875000", "170416.875000", "170416.875000"],
      "DataSetTrailingPadding": [
        "\u0000\u0000\u0000\u0000\u0000\u0000\u0000\u0000\u0000\u0000\u0000\u0000\u0000\u0000\u0000\u0000\u0000\u0000\u0000\u0000\u0000\u0000\u0000\u0000\u0000\u0000\u0000\u0000\u0000\u0000\u0000\u0000\u0000\u0000\u0000\u0000\u0000\u0000",
        "\u0000\u0000\u0000\u0000\u0000\u0000\u0000\u0000\u0000\u0000\u0000\u0000\u0000\u0000\u0000\u0000\u0000\u0000\u0000\u0000\u0000\u0000\u0000\u0000\u0000\u0000\u0000\u0000\u0000\u0000\u0000\u0000\u0000\u0000\u0000\u0000\u0000\u0000",
        "\u0000\u0000\u0000\u0000\u0000\u0000\u0000\u0000\u0000\u0000\u0000\u0000\u0000\u0000\u0000\u0000\u0000\u0000\u0000\u0000\u0000\u0000\u0000\u0000\u0000\u0000\u0000\u0000\u0000\u0000\u0000\u0000\u0000\u0000\u0000\u0000",
        "\u0000\u0000\u0000\u0000\u0000\u0000\u0000\u0000\u0000\u0000\u0000\u0000\u0000\u0000\u0000\u0000\u0000\u0000\u0000\u0000\u0000\u0000\u0000\u0000\u0000\u0000\u0000\u0000\u0000\u0000\u0000\u0000\u0000\u0000\u0000\u0000",
        "\u0000\u0000\u0000\u0000\u0000\u0000\u0000\u0000\u0000\u0000\u0000\u0000\u0000\u0000\u0000\u0000\u0000\u0000\u0000\u0000\u0000\u0000\u0000\u0000\u0000\u0000\u0000\u0000\u0000\u0000\u0000\u0000\u0000\u0000\u0000\u0000\u0000\u0000",
        "\u0000\u0000\u0000\u0000\u0000\u0000\u0000\u0000\u0000\u0000\u0000\u0000\u0000\u0000\u0000\u0000\u0000\u0000\u0000\u0000\u0000\u0000\u0000\u0000\u0000\u0000\u0000\u0000\u0000\u0000\u0000\u0000\u0000\u0000\u0000\u0000\u0000\u0000",
        "\u0000\u0000\u0000\u0000\u0000\u0000\u0000\u0000\u0000\u0000\u0000\u0000\u0000\u0000\u0000\u0000\u0000\u0000\u0000\u0000\u0000\u0000\u0000\u0000\u0000\u0000\u0000\u0000\u0000\u0000\u0000\u0000\u0000\u0000\u0000\u0000",
        "\u0000\u0000\u0000\u0000\u0000\u0000\u0000\u0000\u0000\u0000\u0000\u0000\u0000\u0000\u0000\u0000\u0000\u0000\u0000\u0000\u0000\u0000\u0000\u0000\u0000\u0000\u0000\u0000\u0000\u0000\u0000\u0000\u0000\u0000\u0000\u0000",
        "\u0000\u0000\u0000\u0000\u0000\u0000\u0000\u0000\u0000\u0000\u0000\u0000\u0000\u0000\u0000\u0000\u0000\u0000\u0000\u0000\u0000\u0000\u0000\u0000\u0000\u0000\u0000\u0000\u0000\u0000\u0000\u0000\u0000\u0000\u0000\u0000",
        "\u0000\u0000\u0000\u0000\u0000\u0000\u0000\u0000\u0000\u0000\u0000\u0000\u0000\u0000\u0000\u0000\u0000\u0000\u0000\u0000\u0000\u0000\u0000\u0000\u0000\u0000\u0000\u0000\u0000\u0000\u0000\u0000\u0000\u0000\u0000\u0000\u0000\u0000",
        "\u0000\u0000\u0000\u0000\u0000\u0000\u0000\u0000\u0000\u0000\u0000\u0000\u0000\u0000\u0000\u0000\u0000\u0000\u0000\u0000\u0000\u0000\u0000\u0000\u0000\u0000\u0000\u0000\u0000\u0000\u0000\u0000\u0000\u0000\u0000\u0000\u0000\u0000\u0000\u0000",
        "\u0000\u0000\u0000\u0000\u0000\u0000\u0000\u0000\u0000\u0000\u0000\u0000\u0000\u0000\u0000\u0000\u0000\u0000\u0000\u0000\u0000\u0000\u0000\u0000\u0000\u0000\u0000\u0000\u0000\u0000\u0000\u0000\u0000\u0000\u0000\u0000",
        "\u0000\u0000\u0000\u0000\u0000\u0000\u0000\u0000\u0000\u0000\u0000\u0000\u0000\u0000\u0000\u0000\u0000\u0000\u0000\u0000\u0000\u0000\u0000\u0000\u0000\u0000\u0000\u0000\u0000\u0000\u0000\u0000\u0000\u0000\u0000\u0000",
        "\u0000\u0000\u0000\u0000\u0000\u0000\u0000\u0000\u0000\u0000\u0000\u0000\u0000\u0000\u0000\u0000\u0000\u0000\u0000\u0000\u0000\u0000\u0000\u0000\u0000\u0000\u0000\u0000\u0000\u0000\u0000\u0000\u0000\u0000\u0000\u0000",
        "\u0000\u0000\u0000\u0000\u0000\u0000\u0000\u0000\u0000\u0000\u0000\u0000\u0000\u0000\u0000\u0000\u0000\u0000\u0000\u0000\u0000\u0000\u0000\u0000\u0000\u0000\u0000\u0000\u0000\u0000\u0000\u0000\u0000\u0000\u0000\u0000\u0000\u0000",
        "\u0000\u0000\u0000\u0000\u0000\u0000\u0000\u0000\u0000\u0000\u0000\u0000\u0000\u0000\u0000\u0000\u0000\u0000\u0000\u0000\u0000\u0000\u0000\u0000\u0000\u0000\u0000\u0000\u0000\u0000\u0000\u0000\u0000\u0000\u0000\u0000\u0000\u0000",
        "\u0000\u0000\u0000\u0000\u0000\u0000\u0000\u0000\u0000\u0000\u0000\u0000\u0000\u0000\u0000\u0000\u0000\u0000\u0000\u0000\u0000\u0000\u0000\u0000\u0000\u0000\u0000\u0000\u0000\u0000\u0000\u0000\u0000\u0000\u0000\u0000",
        "\u0000\u0000\u0000\u0000\u0000\u0000\u0000\u0000\u0000\u0000\u0000\u0000\u0000\u0000\u0000\u0000\u0000\u0000\u0000\u0000\u0000\u0000\u0000\u0000\u0000\u0000\u0000\u0000\u0000\u0000\u0000\u0000\u0000\u0000\u0000\u0000",
        "\u0000\u0000\u0000\u0000\u0000\u0000\u0000\u0000\u0000\u0000\u0000\u0000\u0000\u0000\u0000\u0000\u0000\u0000\u0000\u0000\u0000\u0000\u0000\u0000\u0000\u0000\u0000\u0000\u0000\u0000\u0000\u0000\u0000\u0000\u0000\u0000",
        "\u0000\u0000\u0000\u0000\u0000\u0000\u0000\u0000\u0000\u0000\u0000\u0000\u0000\u0000\u0000\u0000\u0000\u0000\u0000\u0000\u0000\u0000\u0000\u0000\u0000\u0000\u0000\u0000\u0000\u0000\u0000\u0000\u0000\u0000\u0000\u0000\u0000\u0000",
        "\u0000\u0000\u0000\u0000\u0000\u0000\u0000\u0000\u0000\u0000\u0000\u0000\u0000\u0000\u0000\u0000\u0000\u0000\u0000\u0000\u0000\u0000\u0000\u0000\u0000\u0000\u0000\u0000\u0000\u0000\u0000\u0000\u0000\u0000\u0000\u0000\u0000\u0000",
        "\u0000\u0000\u0000\u0000\u0000\u0000\u0000\u0000\u0000\u0000\u0000\u0000\u0000\u0000\u0000\u0000\u0000\u0000\u0000\u0000\u0000\u0000\u0000\u0000\u0000\u0000\u0000\u0000\u0000\u0000\u0000\u0000\u0000\u0000\u0000\u0000",
        "\u0000\u0000\u0000\u0000\u0000\u0000\u0000\u0000\u0000\u0000\u0000\u0000\u0000\u0000\u0000\u0000\u0000\u0000\u0000\u0000\u0000\u0000\u0000\u0000\u0000\u0000\u0000\u0000\u0000\u0000\u0000\u0000\u0000\u0000\u0000\u0000",
        "\u0000\u0000\u0000\u0000\u0000\u0000\u0000\u0000\u0000\u0000\u0000\u0000\u0000\u0000\u0000\u0000\u0000\u0000\u0000\u0000\u0000\u0000\u0000\u0000\u0000\u0000\u0000\u0000\u0000\u0000\u0000\u0000\u0000\u0000\u0000\u0000",
        "\u0000\u0000\u0000\u0000\u0000\u0000\u0000\u0000\u0000\u0000\u0000\u0000\u0000\u0000\u0000\u0000\u0000\u0000\u0000\u0000\u0000\u0000\u0000\u0000\u0000\u0000\u0000\u0000\u0000\u0000\u0000\u0000\u0000\u0000\u0000\u0000\u0000\u0000",
        "\u0000\u0000\u0000\u0000\u0000\u0000\u0000\u0000\u0000\u0000\u0000\u0000\u0000\u0000\u0000\u0000\u0000\u0000\u0000\u0000\u0000\u0000\u0000\u0000\u0000\u0000\u0000\u0000\u0000\u0000\u0000\u0000\u0000\u0000\u0000\u0000\u0000\u0000",
        "\u0000\u0000\u0000\u0000\u0000\u0000\u0000\u0000\u0000\u0000\u0000\u0000\u0000\u0000\u0000\u0000\u0000\u0000\u0000\u0000\u0000\u0000\u0000\u0000\u0000\u0000\u0000\u0000\u0000\u0000\u0000\u0000\u0000\u0000\u0000\u0000",
        "\u0000\u0000\u0000\u0000\u0000\u0000\u0000\u0000\u0000\u0000\u0000\u0000\u0000\u0000\u0000\u0000\u0000\u0000\u0000\u0000\u0000\u0000\u0000\u0000\u0000\u0000\u0000\u0000\u0000\u0000\u0000\u0000\u0000\u0000\u0000\u0000",
        "\u0000\u0000\u0000\u0000\u0000\u0000\u0000\u0000\u0000\u0000\u0000\u0000\u0000\u0000\u0000\u0000\u0000\u0000\u0000\u0000\u0000\u0000\u0000\u0000\u0000\u0000\u0000\u0000\u0000\u0000\u0000\u0000\u0000\u0000\u0000\u0000\u0000\u0000",
        "\u0000\u0000\u0000\u0000\u0000\u0000\u0000\u0000\u0000\u0000\u0000\u0000\u0000\u0000\u0000\u0000\u0000\u0000\u0000\u0000\u0000\u0000\u0000\u0000\u0000\u0000\u0000\u0000\u0000\u0000\u0000\u0000\u0000\u0000\u0000\u0000\u0000\u0000",
        "\u0000\u0000\u0000\u0000\u0000\u0000\u0000\u0000\u0000\u0000\u0000\u0000\u0000\u0000\u0000\u0000\u0000\u0000\u0000\u0000\u0000\u0000\u0000\u0000\u0000\u0000\u0000\u0000\u0000\u0000\u0000\u0000\u0000\u0000\u0000\u0000\u0000\u0000",
        "\u0000\u0000\u0000\u0000\u0000\u0000\u0000\u0000\u0000\u0000\u0000\u0000\u0000\u0000\u0000\u0000\u0000\u0000\u0000\u0000\u0000\u0000\u0000\u0000\u0000\u0000\u0000\u0000\u0000\u0000\u0000\u0000\u0000\u0000\u0000\u0000",
        "\u0000\u0000\u0000\u0000\u0000\u0000\u0000\u0000\u0000\u0000\u0000\u0000\u0000\u0000\u0000\u0000\u0000\u0000\u0000\u0000\u0000\u0000\u0000\u0000\u0000\u0000\u0000\u0000\u0000\u0000\u0000\u0000\u0000\u0000\u0000\u0000",
        "\u0000\u0000\u0000\u0000\u0000\u0000\u0000\u0000\u0000\u0000\u0000\u0000\u0000\u0000\u0000\u0000\u0000\u0000\u0000\u0000\u0000\u0000\u0000\u0000\u0000\u0000\u0000\u0000\u0000\u0000\u0000\u0000\u0000\u0000\u0000\u0000\u0000\u0000",
        "\u0000\u0000\u0000\u0000\u0000\u0000\u0000\u0000\u0000\u0000\u0000\u0000\u0000\u0000\u0000\u0000\u0000\u0000\u0000\u0000\u0000\u0000\u0000\u0000\u0000\u0000\u0000\u0000\u0000\u0000\u0000\u0000\u0000\u0000\u0000\u0000\u0000\u0000",
        "\u0000\u0000\u0000\u0000\u0000\u0000\u0000\u0000\u0000\u0000\u0000\u0000\u0000\u0000\u0000\u0000\u0000\u0000\u0000\u0000\u0000\u0000\u0000\u0000\u0000\u0000\u0000\u0000\u0000\u0000\u0000\u0000\u0000\u0000\u0000\u0000\u0000\u0000",
        "\u0000\u0000\u0000\u0000\u0000\u0000\u0000\u0000\u0000\u0000\u0000\u0000\u0000\u0000\u0000\u0000\u0000\u0000\u0000\u0000\u0000\u0000\u0000\u0000\u0000\u0000\u0000\u0000\u0000\u0000\u0000\u0000\u0000\u0000\u0000\u0000",
        "\u0000\u0000\u0000\u0000\u0000\u0000\u0000\u0000\u0000\u0000\u0000\u0000\u0000\u0000\u0000\u0000\u0000\u0000\u0000\u0000\u0000\u0000\u0000\u0000\u0000\u0000\u0000\u0000\u0000\u0000\u0000\u0000\u0000\u0000\u0000\u0000",
        "\u0000\u0000\u0000\u0000\u0000\u0000\u0000\u0000\u0000\u0000\u0000\u0000\u0000\u0000\u0000\u0000\u0000\u0000\u0000\u0000\u0000\u0000\u0000\u0000\u0000\u0000\u0000\u0000\u0000\u0000\u0000\u0000\u0000\u0000\u0000\u0000\u0000\u0000",
        "\u0000\u0000\u0000\u0000\u0000\u0000\u0000\u0000\u0000\u0000\u0000\u0000\u0000\u0000\u0000\u0000\u0000\u0000\u0000\u0000\u0000\u0000\u0000\u0000\u0000\u0000\u0000\u0000\u0000\u0000\u0000\u0000\u0000\u0000\u0000\u0000\u0000\u0000\u0000\u0000",
        "\u0000\u0000\u0000\u0000\u0000\u0000\u0000\u0000\u0000\u0000\u0000\u0000\u0000\u0000\u0000\u0000\u0000\u0000\u0000\u0000\u0000\u0000\u0000\u0000\u0000\u0000\u0000\u0000\u0000\u0000\u0000\u0000\u0000\u0000\u0000\u0000\u0000\u0000",
        "\u0000\u0000\u0000\u0000\u0000\u0000\u0000\u0000\u0000\u0000\u0000\u0000\u0000\u0000\u0000\u0000\u0000\u0000\u0000\u0000\u0000\u0000\u0000\u0000\u0000\u0000\u0000\u0000\u0000\u0000\u0000\u0000\u0000\u0000\u0000\u0000",
        "\u0000\u0000\u0000\u0000\u0000\u0000\u0000\u0000\u0000\u0000\u0000\u0000\u0000\u0000\u0000\u0000\u0000\u0000\u0000\u0000\u0000\u0000\u0000\u0000\u0000\u0000\u0000\u0000\u0000\u0000\u0000\u0000\u0000\u0000\u0000\u0000",
        "\u0000\u0000\u0000\u0000\u0000\u0000\u0000\u0000\u0000\u0000\u0000\u0000\u0000\u0000\u0000\u0000\u0000\u0000\u0000\u0000\u0000\u0000\u0000\u0000\u0000\u0000\u0000\u0000\u0000\u0000\u0000\u0000\u0000\u0000\u0000\u0000\u0000\u0000",
