{
  "AcquisitionMatrixPE": 110,
  "AcquisitionNumber": 1,
  "AcquisitionTime": "09:52:36.955000",
  "BandwidthPerPixelPhaseEncode": 26.35,
  "BaseResolution": 110,
  "CoilString": "C:HEA;HEP",
  "ConversionSoftware": "dcm2niix",
  "ConversionSoftwareVersion": "v1.0.20190410  GCC6.3.0",
  "DerivedVendorReportedEchoSpacing": 0.000690012,
  "DeviceSerialNumber": "35422",
  "DwellTime": 2.6e-06,
  "EchoTime": 0.03,
  "EffectiveEchoSpacing": 0.000345006,
  "FlipAngle": 85,
  "ImageComments": "Unaliased_MB4_PE4_LB",
  "ImageOrientationPatientDICOM": [0.999997, -0.000532351, -0.00235142, 1.94786e-10, 0.975317, -0.220807],
  "ImageType": [
    "ORIGINAL",
    "PRIMARY",
    "FMRI",
    "NONE",
    "MB",
    "ND",
    "MOSAIC"
],
  "ImagingFrequency": 123.177,
  "InPlanePhaseEncodingDirectionDICOM": "ROW",
  "InstitutionAddress": "kwanakro_599_C4F276_Seoul_KR_ZIP",
  "InstitutionName": "SNUBIC",
  "InstitutionalDepartmentName": "Department",
  "MRAcquisitionType": "2D",
  "MagneticFieldStrength": 3,
  "Manufacturer": "Siemens",
  "ManufacturersModelName": "TrioTim",
  "Modality": "MR",
  "MultibandAccelerationFactor": 4,
  "ParallelReductionFactorInPlane": 2,
  "PartialFourier": 1,
  "PatientPosition": "HFS",
  "PercentPhaseFOV": 100,
  "PhaseEncodingDirection": "i-",
  "PhaseEncodingSteps": 110,
  "PhaseResolution": 1,
  "PixelBandwidth": 1748,
  "ProcedureStepDescription": "SNU_SAVED",
  "ProtocolName": "WMGNG1_MB4_LR_SBRef",
  "PulseSequenceDetails": "%CustomerSeq%_cmrr_mbep2d_bold",
  "ReceiveCoilName": "32Ch_Head",
  "ReconMatrixPE": 110,
  "RefLinesPE": 32,
  "RepetitionTime": 1.5,
  "SAR": 0.160668,
  "ScanOptions": "FS",
  "ScanningSequence": "EP",
  "SequenceName": "epfid2d1_110",
  "SequenceVariant": "SK_SS",
  "SeriesDescription": "WMGNG1_MB4_LR_SBRef",
  "SeriesNumber": 8,
  "ShimSetting": [-4144, -29731, -2059, 741, -161, 98, -139, -9],
  "SliceThickness": 2.3,
  "SliceTiming": [0, 0.66, 1.3175, 0.47, 1.13, 0.2825, 0.94, 0.095, 0.7525, 1.4125, 0.565, 1.2225, 0.3775, 1.035, 0.1875, 0.8475, 0, 0.66, 1.3175, 0.47, 1.13, 0.2825, 0.94, 0.095, 0.7525, 1.4125, 0.565, 1.2225, 0.3775, 1.035, 0.1875, 0.8475, 0, 0.66, 1.3175, 0.47, 1.13, 0.2825, 0.94, 0.095, 0.7525, 1.4125, 0.565, 1.2225, 0.3775, 1.035, 0.1875, 0.8475, 0, 0.66, 1.3175, 0.47, 1.13, 0.2825, 0.94, 0.095, 0.7525, 1.4125, 0.565, 1.2225, 0.3775, 1.035, 0.1875, 0.8475],
  "SoftwareVersions": "syngo_MR_B17",
  "SpacingBetweenSlices": 2.3,
  "StationName": "MRC35422",
  "TaskName": "wmgng",
  "TotalReadoutTime": 0.0376057,
  "TxRefAmp": 392.458,
  "dcmmeta_affine": [
    [-2.327265977859497, 4.533196595879474e-10, -0.005545142572373152, 133.30613708496094],
    [0.001238926430232823, 2.269829750061035, -0.5078550577163696, -92.3070068359375],
    [-0.005472403950989246, 0.5138785243034363, 2.2432236671447754, -97.87775421142578],
    [0.0, 0.0, 0.0, 1.0]
],
  "dcmmeta_reorient_transform": [
    [0.0, -1.0, 0.0, 109.0],
    [1.0, 0.0, 0.0, 0.0],
    [0.0, 0.0, 1.0, 0.0],
    [0.0, 0.0, 0.0, 1.0]
],
  "dcmmeta_shape": [110, 110, 64, 357],
  "dcmmeta_slice_dim": 2,
  "dcmmeta_version": 0.6,
  "global": {
    "const": {
      "AcquisitionMatrix": [0, 110, 110, 0],
      "AngioFlag": "N",
      "BitsAllocated": 16,
      "BitsStored": 12,
      "Columns": 880,
      "EchoNumbers": 1,
      "EchoTime": 30.0,
      "EchoTrainLength": 1,
      "FlipAngle": 85.0,
      "HighBit": 11,
      "ImageOrientationPatient": [0.99999709370019, -0.0005323512328, -0.0023514236845, 1.947858e-10, 0.97531747796708, -0.2208071945656],
      "ImagePositionPatient": [-1029.3035036026, -1028.5118740511, 158.08511945128],
      "ImageType": [
        "ORIGINAL",
        "PRIMARY",
        "FMRI",
        "NONE",
        "MB",
        "ND",
        "MOSAIC"
],
      "ImagedNucleus": "1H",
      "ImagingFrequency": 123.177357,
      "InPlanePhaseEncodingDirection": "ROW",
      "MRAcquisitionType": "2D",
      "MagneticFieldStrength": 3.0,
      "Manufacturer": "SIEMENS",
      "ManufacturerModelName": "TrioTim",
      "Modality": "MR",
      "NumberOfAverages": 1.0,
      "NumberOfPhaseEncodingSteps": 110,
      "PercentPhaseFieldOfView": 100.0,
      "PercentSampling": 100.0,
      "PerformedProcedureStepStartTime": "092314.812000",
      "PhotometricInterpretation": "MONOCHROME2",
      "PixelBandwidth": 1748.0,
      "PixelRepresentation": 0,
      "PixelSpacing": [2.3272726535797, 2.3272726535797],
      "ProtocolName": "WMGNG1_MB4_LR_SBRef",
      "ReferencedPerformedProcedureStepSequence": [
        {
          "ReferencedSOPClassUID": "1.2.840.10008.3.1.2.3.3",
          "ReferencedSOPInstanceUID": "1.3.12.2.1107.5.2.32.35422.30000020020800231482800000000"}
],
      "RepetitionTime": 1500.0,
      "Rows": 880,
      "SAR": 0.16066810699044,
      "SamplesPerPixel": 1,
      "ScanOptions": "FS",
      "ScanningSequence": "EP",
      "SequenceName": "epfid2d1_110",
      "SequenceVariant": [
        "SK",
        "SS"
],
      "SeriesDescription": "WMGNG1_MB4_LR_SBRef",
      "SeriesNumber": 8,
      "SeriesTime": "095439.453000",
      "SliceLocation": -75.401009895081,
      "SliceThickness": 2.2999999523163,
      "SmallestImagePixelValue": 0,
      "SoftwareVersions": "syngo MR B17",
      "SpacingBetweenSlices": 2.2999999616141,
      "SpecificCharacterSet": "ISO_IR 100",
      "StudyID": "1",
      "StudyTime": "092314.625000",
      "TransmitCoilName": "Body",
      "VariableFlipAngleFlag": "N",
      "WindowCenterWidthExplanation": "Algo1",
      "dBdt": 0.0},
    "slices": {}
  },
  "time": {
    "samples": {
      "AcquisitionNumber": [1, 2, 3, 4, 5, 6, 7, 8, 9, 10, 11, 12, 13, 14, 15, 16, 17, 18, 19, 20, 21, 22, 23, 24, 25, 26, 27, 28, 29, 30, 31, 32, 33, 34, 35, 36, 37, 38, 39, 40, 41, 42, 43, 44, 45, 46, 47, 48, 49, 50, 51, 52, 53, 54, 55, 56, 57, 58, 59, 60, 61, 62, 63, 64, 65, 66, 67, 68, 69, 70, 71, 72, 73, 74, 75, 76, 77, 78, 79, 80, 81, 82, 83, 84, 85, 86, 87, 88, 89, 90, 91, 92, 93, 94, 95, 96, 97, 98, 99, 100, 101, 102, 103, 104, 105, 106, 107, 108, 109, 110, 111, 112, 113, 114, 115, 116, 117, 118, 119, 120, 121, 122, 123, 124, 125, 126, 127, 128, 129, 130, 131, 132, 133, 134, 135, 136, 137, 138, 139, 140, 141, 142, 143, 144, 145, 146, 147, 148, 149, 150, 151, 152, 153, 154, 155, 156, 157, 158, 159, 160, 161, 162, 163, 164, 165, 166, 167, 168, 169, 170, 171, 172, 173, 174, 175, 176, 177, 178, 179, 180, 181, 182, 183, 184, 185, 186, 187, 188, 189, 190, 191, 192, 193, 194, 195, 196, 197, 198, 199, 200, 201, 202, 203, 204, 205, 206, 207, 208, 209, 210, 211, 212, 213, 214, 215, 216, 217, 218, 219, 220, 221, 222, 223, 224, 225, 226, 227, 228, 229, 230, 231, 232, 233, 234, 235, 236, 237, 238, 239, 240, 241, 242, 243, 244, 245, 246, 247, 248, 249, 250, 251, 252, 253, 254, 255, 256, 257, 258, 259, 260, 261, 262, 263, 264, 265, 266, 267, 268, 269, 270, 271, 272, 273, 274, 275, 276, 277, 278, 279, 280, 281, 282, 283, 284, 285, 286, 287, 288, 289, 290, 291, 292, 293, 294, 295, 296, 297, 298, 299, 300, 301, 302, 303, 304, 305, 306, 307, 308, 309, 310, 311, 312, 313, 314, 315, 316, 317, 318, 319, 320, 321, 322, 323, 324, 325, 326, 327, 328, 329, 330, 331, 332, 333, 334, 335, 336, 337, 338, 339, 340, 341, 342, 343, 344, 345, 346, 347, 348, 349, 350, 351, 352, 353, 354, 355, 356, 357],
      "AcquisitionTime": ["095236.955000", "095238.462500", "095239.967500", "095241.472500", "095242.980000", "095244.485000", "095245.992500", "095247.497500", "095249.002500", "095250.510000", "095252.015000", "095253.522500", "095255.027500", "095256.532500", "095258.040000", "095259.545000", "095301.052500", "095302.557500", "095304.062500", "095305.570000", "095307.075000", "095308.582500", "095310.087500", "095311.595000", "095313.100000", "095314.605000", "095316.112500", "095317.617500", "095319.125000", "095320.630000", "095322.135000", "095323.642500", "095325.147500", "095326.655000", "095328.160000", "095329.665000", "095331.172500", "095332.677500", "095334.185000", "095335.690000", "095337.195000", "095338.702500", "095340.207500", "095341.715000", "095343.220000", "095344.727500", "095346.232500", "095347.737500", "095349.245000", "095350.750000", "095352.257500", "095353.762500", "095355.267500", "095356.775000", "095358.280000", "095359.787500", "095401.292500", "095402.797500", "095404.305000", "095405.810000", "095407.317500", "095408.822500", "095410.330000", "095411.835000", "095413.340000", "095414.847500", "095416.352500", "095417.860000", "095419.365000", "095420.870000", "095422.377500", "095423.882500", "095425.390000", "095426.895000", "095428.400000", "095429.907500", "095431.412500", "095432.920000", "095434.425000", "095435.930000", "095437.437500", "095438.942500", "095440.450000", "095441.955000", "095443.462500", "095444.967500", "095446.472500", "095447.980000", "095449.485000", "095450.992500", "095452.497500", "095454.002500", "095455.510000", "095457.015000", "095458.522500", "095500.027500", "095501.532500", "095503.040000", "095504.545000", "095506.052500", "095507.557500", "095509.062500", "095510.570000", "095512.075000", "095513.582500", "095515.087500", "095516.595000", "095518.100000", "095519.605000", "095521.112500", "095522.617500", "095524.125000", "095525.630000", "095527.135000", "095528.642500", "095530.147500", "095531.655000", "095533.160000", "095534.665000", "095536.172500", "095537.677500", "095539.185000", "095540.690000", "095542.195000", "095543.702500", "095545.207500", "095546.715000", "095548.220000", "095549.727500", "095551.232500", "095552.737500", "095554.245000", "095555.750000", "095557.257500", "095558.762500", "095600.267500", "095601.775000", "095603.280000", "095604.787500", "095606.292500", "095607.797500", "095609.305000", "095610.810000", "095612.317500", "095613.822500", "095615.330000", "095616.835000", "095618.340000", "095619.847500", "095621.352500", "095622.860000", "095624.365000", "095625.870000", "095627.377500", "095628.882500", "095630.390000", "095631.895000", "095633.400000", "095634.907500", "095636.412500", "095637.920000", "095639.425000", "095640.930000", "095642.437500", "095643.942500", "095645.450000", "095646.955000", "095648.462500", "095649.967500", "095651.472500", "095652.980000", "095654.485000", "095655.992500", "095657.497500", "095659.002500", "095700.510000", "095702.015000", "095703.522500", "095705.027500", "095706.532500", "095708.040000", "095709.545000", "095711.052500", "095712.557500", "095714.062500", "095715.570000", "095717.075000", "095718.582500", "095720.087500", "095721.595000", "095723.100000", "095724.605000", "095726.112500", "095727.617500", "095729.125000", "095730.630000", "095732.135000", "095733.642500", "095735.147500", "095736.655000", "095738.160000", "095739.665000", "095741.172500", "095742.677500", "095744.185000", "095745.690000", "095747.195000", "095748.702500", "095750.207500", "095751.715000", "095753.220000", "095754.727500", "095756.232500", "095757.737500", "095759.245000", "095800.750000", "095802.257500", "095803.762500", "095805.267500", "095806.775000", "095808.280000", "095809.787500", "095811.292500", "095812.797500", "095814.305000", "095815.810000", "095817.317500", "095818.822500", "095820.330000", "095821.835000", "095823.340000", "095824.847500", "095826.352500", "095827.860000", "095829.365000", "095830.870000", "095832.377500", "095833.882500", "095835.390000", "095836.895000", "095838.400000", "095839.907500", "095841.412500", "095842.920000", "095844.425000", "095845.930000", "095847.437500", "095848.942500", "095850.450000", "095851.955000", "095853.462500", "095854.967500", "095856.472500", "095857.980000", "095859.485000", "095900.992500", "095902.497500", "095904.002500", "095905.510000", "095907.015000", "095908.522500", "095910.027500", "095911.532500", "095913.040000", "095914.545000", "095916.052500", "095917.557500", "095919.062500", "095920.570000", "095922.075000", "095923.582500", "095925.087500", "095926.595000", "095928.100000", "095929.605000", "095931.112500", "095932.617500", "095934.125000", "095935.630000", "095937.135000", "095938.642500", "095940.147500", "095941.655000", "095943.160000", "095944.665000", "095946.172500", "095947.677500", "095949.185000", "095950.690000", "095952.195000", "095953.702500", "095955.207500", "095956.715000", "095958.220000", "095959.727500", "100001.232500", "100002.737500", "100004.245000", "100005.750000", "100007.257500", "100008.762500", "100010.267500", "100011.775000", "100013.280000", "100014.787500", "100016.292500", "100017.797500", "100019.305000", "100020.810000", "100022.317500", "100023.822500", "100025.330000", "100026.835000", "100028.340000", "100029.847500", "100031.352500", "100032.860000", "100034.365000", "100035.870000", "100037.377500", "100038.882500", "100040.390000", "100041.895000", "100043.400000", "100044.907500", "100046.412500", "100047.920000", "100049.425000", "100050.930000", "100052.437500", "100053.942500", "100055.450000", "100056.955000", "100058.462500", "100059.967500", "100101.472500", "100102.980000", "100104.485000", "100105.992500", "100107.497500", "100109.002500", "100110.510000", "100112.015000", "100113.522500", "100115.027500", "100116.532500", "100118.040000", "100119.545000", "100121.052500", "100122.557500", "100124.062500", "100125.570000", "100127.075000", "100128.582500", "100130.087500", "100131.595000", "100133.100000"],
      "ContentTime": ["095439.453000", "095439.453000", "095439.468000", "095439.468000", "095439.468000", "095439.468000", "095439.468000", "095439.468000", "095439.484000", "095439.484000", "095439.484000", "095439.484000", "095439.484000", "095439.500000", "095439.500000", "095439.500000", "095439.500000", "095439.500000", "095439.500000", "095439.500000", "095439.500000", "095439.515000", "095539.453000", "095539.453000", "095539.453000", "095539.453000", "095539.453000", "095539.468000", "095539.468000", "095539.468000", "095539.468000", "095539.468000", "095539.468000", "095539.484000", "095539.484000", "095539.484000", "095539.484000", "095539.484000", "095539.484000", "095539.484000", "095539.484000", "095539.500000", "095539.500000", "095539.500000", "095539.500000", "095539.500000", "095539.500000", "095539.500000", "095639.453000", "095639.468000", "095639.468000", "095639.468000", "095639.468000", "095639.468000", "095639.468000", "095639.468000", "095639.468000", "095639.484000", "095639.484000", "095639.484000", "095639.484000", "095639.484000", "095639.484000", "095639.500000", "095639.500000", "095639.500000", "095639.500000", "095639.500000", "095639.500000", "095639.500000", "095639.500000", "095639.500000", "095639.515000", "095639.515000", "095739.453000", "095739.453000", "095739.453000", "095739.453000", "095739.453000", "095739.468000", "095739.468000", "095739.468000", "095739.468000", "095739.468000", "095739.468000", "095739.484000", "095739.484000", "095739.484000", "095739.484000", "095739.500000", "095739.500000", "095739.500000", "095739.500000", "095739.500000", "095739.515000", "095739.515000", "095739.515000", "095739.515000", "095739.515000", "095739.531000", "095819.453000", "095819.453000", "095819.468000", "095819.468000", "095819.468000", "095819.468000", "095819.468000", "095819.468000", "095819.468000", "095819.468000", "095819.468000", "095819.484000", "095819.484000", "095819.484000", "095819.484000", "095819.484000", "095819.484000", "095819.484000", "095919.453000", "095919.453000", "095919.453000", "095919.453000", "095919.453000", "095919.468000", "095919.468000", "095919.468000", "095919.468000", "095919.468000", "095919.468000", "095919.468000", "095919.468000", "095919.468000", "095919.484000", "095919.484000", "095919.484000", "095919.484000", "095919.484000", "095919.484000", "095919.484000", "095919.484000", "095919.484000", "095919.500000", "095919.500000", "095919.500000", "100019.453000", "100019.453000", "100019.453000", "100019.453000", "100019.453000", "100019.468000", "100019.468000", "100019.468000", "100019.468000", "100019.468000", "100019.468000", "100019.468000", "100019.468000", "100019.468000", "100019.484000", "100019.484000", "100019.484000", "100019.484000", "100019.484000", "100019.484000", "100019.484000", "100019.500000", "100019.500000", "100019.500000", "100019.500000", "100019.500000", "100119.453000", "100119.453000", "100119.453000", "100119.453000", "100119.453000", "100119.468000", "100119.468000", "100119.468000", "100119.468000", "100119.468000", "100119.468000", "100119.468000", "100119.468000", "100119.468000", "100119.484000", "100119.484000", "100119.484000", "100119.484000", "100119.484000", "100119.484000", "100119.484000", "100119.484000", "100119.484000", "100119.500000", "100119.500000", "100119.500000", "100219.453000", "100219.453000", "100219.453000", "100219.453000", "100219.453000", "100219.468000", "100219.468000", "100219.468000", "100219.468000", "100219.468000", "100219.468000", "100219.468000", "100219.468000", "100219.468000", "100219.484000", "100219.484000", "100219.484000", "100219.484000", "100219.484000", "100219.484000", "100219.500000", "100219.500000", "100219.500000", "100219.500000", "100219.500000", "100219.500000", "100319.453000", "100319.453000", "100319.453000", "100319.453000", "100319.453000", "100319.468000", "100319.468000", "100319.468000", "100319.468000", "100319.468000", "100319.468000", "100319.468000", "100319.484000", "100319.484000", "100319.484000", "100319.484000", "100319.484000", "100319.484000", "100319.484000", "100319.500000", "100319.500000", "100319.500000", "100319.500000", "100319.500000", "100319.500000", "100319.500000", "100419.453000", "100419.468000", "100419.468000", "100419.468000", "100419.468000", "100419.468000", "100419.468000", "100419.468000", "100419.484000", "100419.484000", "100419.484000", "100419.484000", "100419.484000", "100419.484000", "100419.484000", "100419.500000", "100419.500000", "100419.500000", "100419.500000", "100419.500000", "100419.500000", "100419.515000", "100419.515000", "100419.515000", "100419.515000", "100419.515000", "100519.453000", "100519.453000", "100519.453000", "100519.453000", "100519.453000", "100519.453000", "100519.468000", "100519.468000", "100519.468000", "100519.468000", "100519.468000", "100519.468000", "100519.468000", "100519.468000", "100519.468000", "100519.484000", "100519.484000", "100519.484000", "100519.484000", "100519.484000", "100519.484000", "100519.484000", "100519.484000", "100519.484000", "100519.500000", "100519.500000", "100619.453000", "100619.453000", "100619.468000", "100619.468000", "100619.468000", "100619.468000", "100619.468000", "100619.468000", "100619.468000", "100619.484000", "100619.484000", "100619.484000", "100619.484000", "100619.500000", "100619.500000", "100619.500000", "100619.500000", "100619.500000", "100619.500000", "100619.500000", "100619.500000", "100619.500000", "100619.515000", "100619.515000", "100619.515000", "100619.515000", "100719.468000", "100719.468000", "100719.484000", "100719.484000", "100719.484000", "100719.484000", "100719.484000", "100719.484000", "100719.484000", "100719.500000", "100719.500000", "100719.500000", "100719.500000", "100719.500000", "100719.500000", "100719.500000", "100719.500000", "100719.500000", "100719.515000", "100719.515000", "100719.515000", "100719.515000", "100719.515000", "100719.515000", "100719.531000", "100719.531000", "100730.109000", "100730.109000", "100730.109000", "100730.125000", "100730.125000"],
      "DataSetTrailingPadding": [
        "\u0000\u0000\u0000\u0000\u0000\u0000\u0000\u0000\u0000\u0000\u0000\u0000\u0000\u0000\u0000\u0000\u0000\u0000\u0000\u0000\u0000\u0000\u0000\u0000\u0000\u0000\u0000\u0000",
        "\u0000\u0000\u0000\u0000\u0000\u0000\u0000\u0000\u0000\u0000\u0000\u0000\u0000\u0000\u0000\u0000\u0000\u0000\u0000\u0000\u0000\u0000\u0000\u0000\u0000\u0000\u0000\u0000\u0000\u0000",
        "\u0000\u0000\u0000\u0000\u0000\u0000\u0000\u0000\u0000\u0000\u0000\u0000\u0000\u0000\u0000\u0000\u0000\u0000\u0000\u0000\u0000\u0000\u0000\u0000\u0000\u0000\u0000\u0000\u0000\u0000",
        "\u0000\u0000\u0000\u0000\u0000\u0000\u0000\u0000\u0000\u0000\u0000\u0000\u0000\u0000\u0000\u0000\u0000\u0000\u0000\u0000\u0000\u0000\u0000\u0000\u0000\u0000\u0000\u0000\u0000\u0000",
        "\u0000\u0000\u0000\u0000\u0000\u0000\u0000\u0000\u0000\u0000\u0000\u0000\u0000\u0000\u0000\u0000\u0000\u0000\u0000\u0000\u0000\u0000\u0000\u0000\u0000\u0000\u0000\u0000\u0000\u0000",
        "\u0000\u0000\u0000\u0000\u0000\u0000\u0000\u0000\u0000\u0000\u0000\u0000\u0000\u0000\u0000\u0000\u0000\u0000\u0000\u0000\u0000\u0000\u0000\u0000\u0000\u0000\u0000\u0000",
        "\u0000\u0000\u0000\u0000\u0000\u0000\u0000\u0000\u0000\u0000\u0000\u0000\u0000\u0000\u0000\u0000\u0000\u0000\u0000\u0000\u0000\u0000\u0000\u0000\u0000\u0000\u0000\u0000",
        "\u0000\u0000\u0000\u0000\u0000\u0000\u0000\u0000\u0000\u0000\u0000\u0000\u0000\u0000\u0000\u0000\u0000\u0000\u0000\u0000\u0000\u0000\u0000\u0000\u0000\u0000\u0000\u0000\u0000\u0000",
        "\u0000\u0000\u0000\u0000\u0000\u0000\u0000\u0000\u0000\u0000\u0000\u0000\u0000\u0000\u0000\u0000\u0000\u0000\u0000\u0000\u0000\u0000\u0000\u0000\u0000\u0000\u0000\u0000\u0000\u0000",
        "\u0000\u0000\u0000\u0000\u0000\u0000\u0000\u0000\u0000\u0000\u0000\u0000\u0000\u0000\u0000\u0000\u0000\u0000\u0000\u0000\u0000\u0000\u0000\u0000\u0000\u0000",
        "\u0000\u0000\u0000\u0000\u0000\u0000\u0000\u0000\u0000\u0000\u0000\u0000\u0000\u0000\u0000\u0000\u0000\u0000\u0000\u0000\u0000\u0000\u0000\u0000",
        "\u0000\u0000\u0000\u0000\u0000\u0000\u0000\u0000\u0000\u0000\u0000\u0000\u0000\u0000\u0000\u0000\u0000\u0000\u0000\u0000\u0000\u0000\u0000\u0000",
        "\u0000\u0000\u0000\u0000\u0000\u0000\u0000\u0000\u0000\u0000\u0000\u0000\u0000\u0000\u0000\u0000\u0000\u0000\u0000\u0000\u0000\u0000\u0000\u0000\u0000\u0000",
        "\u0000\u0000\u0000\u0000\u0000\u0000\u0000\u0000\u0000\u0000\u0000\u0000\u0000\u0000\u0000\u0000\u0000\u0000\u0000\u0000\u0000\u0000\u0000\u0000\u0000\u0000",
        "\u0000\u0000\u0000\u0000\u0000\u0000\u0000\u0000\u0000\u0000\u0000\u0000\u0000\u0000\u0000\u0000\u0000\u0000\u0000\u0000\u0000\u0000\u0000\u0000\u0000\u0000",
        "\u0000\u0000\u0000\u0000\u0000\u0000\u0000\u0000\u0000\u0000\u0000\u0000\u0000\u0000\u0000\u0000\u0000\u0000\u0000\u0000\u0000\u0000\u0000\u0000",
        "\u0000\u0000\u0000\u0000\u0000\u0000\u0000\u0000\u0000\u0000\u0000\u0000\u0000\u0000\u0000\u0000\u0000\u0000\u0000\u0000\u0000\u0000\u0000\u0000",
        "\u0000\u0000\u0000\u0000\u0000\u0000\u0000\u0000\u0000\u0000\u0000\u0000\u0000\u0000\u0000\u0000\u0000\u0000\u0000\u0000\u0000\u0000\u0000\u0000\u0000\u0000",
        "\u0000\u0000\u0000\u0000\u0000\u0000\u0000\u0000\u0000\u0000\u0000\u0000\u0000\u0000\u0000\u0000\u0000\u0000\u0000\u0000\u0000\u0000\u0000\u0000\u0000\u0000",
        "\u0000\u0000\u0000\u0000\u0000\u0000\u0000\u0000\u0000\u0000\u0000\u0000\u0000\u0000\u0000\u0000\u0000\u0000\u0000\u0000\u0000\u0000\u0000\u0000",
        "\u0000\u0000\u0000\u0000\u0000\u0000\u0000\u0000\u0000\u0000\u0000\u0000\u0000\u0000\u0000\u0000\u0000\u0000\u0000\u0000\u0000\u0000\u0000\u0000",
        "\u0000\u0000\u0000\u0000\u0000\u0000\u0000\u0000\u0000\u0000\u0000\u0000\u0000\u0000\u0000\u0000\u0000\u0000\u0000\u0000\u0000\u0000\u0000\u0000",
        "\u0000\u0000\u0000\u0000\u0000\u0000\u0000\u0000\u0000\u0000\u0000\u0000\u0000\u0000\u0000\u0000\u0000\u0000\u0000\u0000\u0000\u0000\u0000\u0000\u0000\u0000\u0000\u0000",
        "\u0000\u0000\u0000\u0000\u0000\u0000\u0000\u0000\u0000\u0000\u0000\u0000\u0000\u0000\u0000\u0000\u0000\u0000\u0000\u0000\u0000\u0000\u0000\u0000\u0000\u0000\u0000\u0000",
        "\u0000\u0000\u0000\u0000\u0000\u0000\u0000\u0000\u0000\u0000\u0000\u0000\u0000\u0000\u0000\u0000\u0000\u0000\u0000\u0000\u0000\u0000\u0000\u0000",
        "\u0000\u0000\u0000\u0000\u0000\u0000\u0000\u0000\u0000\u0000\u0000\u0000\u0000\u0000\u0000\u0000\u0000\u0000\u0000\u0000\u0000\u0000\u0000\u0000",
        "\u0000\u0000\u0000\u0000\u0000\u0000\u0000\u0000\u0000\u0000\u0000\u0000\u0000\u0000\u0000\u0000\u0000\u0000\u0000\u0000\u0000\u0000\u0000\u0000",
        "\u0000\u0000\u0000\u0000\u0000\u0000\u0000\u0000\u0000\u0000\u0000\u0000\u0000\u0000\u0000\u0000\u0000\u0000\u0000\u0000\u0000\u0000\u0000\u0000\u0000\u0000",
        "\u0000\u0000\u0000\u0000\u0000\u0000\u0000\u0000\u0000\u0000\u0000\u0000\u0000\u0000\u0000\u0000\u0000\u0000\u0000\u0000\u0000\u0000\u0000\u0000\u0000\u0000",
        "\u0000\u0000\u0000\u0000\u0000\u0000\u0000\u0000\u0000\u0000\u0000\u0000\u0000\u0000\u0000\u0000\u0000\u0000\u0000\u0000\u0000\u0000\u0000\u0000",
        "\u0000\u0000\u0000\u0000\u0000\u0000\u0000\u0000\u0000\u0000\u0000\u0000\u0000\u0000\u0000\u0000\u0000\u0000\u0000\u0000\u0000\u0000\u0000\u0000",
        "\u0000\u0000\u0000\u0000\u0000\u0000\u0000\u0000\u0000\u0000\u0000\u0000\u0000\u0000\u0000\u0000\u0000\u0000\u0000\u0000\u0000\u0000\u0000\u0000",
        "\u0000\u0000\u0000\u0000\u0000\u0000\u0000\u0000\u0000\u0000\u0000\u0000\u0000\u0000\u0000\u0000\u0000\u0000\u0000\u0000\u0000\u0000\u0000\u0000\u0000\u0000",
        "\u0000\u0000\u0000\u0000\u0000\u0000\u0000\u0000\u0000\u0000\u0000\u0000\u0000\u0000\u0000\u0000\u0000\u0000\u0000\u0000\u0000\u0000\u0000\u0000\u0000\u0000",
        "\u0000\u0000\u0000\u0000\u0000\u0000\u0000\u0000\u0000\u0000\u0000\u0000\u0000\u0000\u0000\u0000\u0000\u0000\u0000\u0000\u0000\u0000\u0000\u0000",
        "\u0000\u0000\u0000\u0000\u0000\u0000\u0000\u0000\u0000\u0000\u0000\u0000\u0000\u0000\u0000\u0000\u0000\u0000\u0000\u0000\u0000\u0000\u0000\u0000\u0000\u0000\u0000\u0000",
        "\u0000\u0000\u0000\u0000\u0000\u0000\u0000\u0000\u0000\u0000\u0000\u0000\u0000\u0000\u0000\u0000\u0000\u0000\u0000\u0000\u0000\u0000\u0000\u0000",
        "\u0000\u0000\u0000\u0000\u0000\u0000\u0000\u0000\u0000\u0000\u0000\u0000\u0000\u0000\u0000\u0000\u0000\u0000\u0000\u0000\u0000\u0000\u0000\u0000\u0000\u0000",
        "\u0000\u0000\u0000\u0000\u0000\u0000\u0000\u0000\u0000\u0000\u0000\u0000\u0000\u0000\u0000\u0000\u0000\u0000\u0000\u0000\u0000\u0000\u0000\u0000\u0000\u0000",
        "\u0000\u0000\u0000\u0000\u0000\u0000\u0000\u0000\u0000\u0000\u0000\u0000\u0000\u0000\u0000\u0000\u0000\u0000\u0000\u0000\u0000\u0000\u0000\u0000",
        "\u0000\u0000\u0000\u0000\u0000\u0000\u0000\u0000\u0000\u0000\u0000\u0000\u0000\u0000\u0000\u0000\u0000\u0000\u0000\u0000\u0000\u0000\u0000\u0000",
        "\u0000\u0000\u0000\u0000\u0000\u0000\u0000\u0000\u0000\u0000\u0000\u0000\u0000\u0000\u0000\u0000\u0000\u0000\u0000\u0000\u0000\u0000\u0000\u0000\u0000\u0000",
        "\u0000\u0000\u0000\u0000\u0000\u0000\u0000\u0000\u0000\u0000\u0000\u0000\u0000\u0000\u0000\u0000\u0000\u0000\u0000\u0000\u0000\u0000\u0000\u0000\u0000\u0000",
        "\u0000\u0000\u0000\u0000\u0000\u0000\u0000\u0000\u0000\u0000\u0000\u0000\u0000\u0000\u0000\u0000\u0000\u0000\u0000\u0000\u0000\u0000\u0000\u0000\u0000\u0000",
        "\u0000\u0000\u0000\u0000\u0000\u0000\u0000\u0000\u0000\u0000\u0000\u0000\u0000\u0000\u0000\u0000\u0000\u0000\u0000\u0000\u0000\u0000\u0000\u0000",
        "\u0000\u0000\u0000\u0000\u0000\u0000\u0000\u0000\u0000\u0000\u0000\u0000\u0000\u0000\u0000\u0000\u0000\u0000\u0000\u0000\u0000\u0000\u0000\u0000",
        "\u0000\u0000\u0000\u0000\u0000\u0000\u0000\u0000\u0000\u0000\u0000\u0000\u0000\u0000\u0000\u0000\u0000\u0000\u0000\u0000\u0000\u0000\u0000\u0000\u0000\u0000",
        "\u0000\u0000\u0000\u0000\u0000\u0000\u0000\u0000\u0000\u0000\u0000\u0000\u0000\u0000\u0000\u0000\u0000\u0000\u0000\u0000\u0000\u0000\u0000\u0000\u0000\u0000",
        "\u0000\u0000\u0000\u0000\u0000\u0000\u0000\u0000\u0000\u0000\u0000\u0000\u0000\u0000\u0000\u0000\u0000\u0000\u0000\u0000\u0000\u0000\u0000\u0000\u0000\u0000",
        "\u0000\u0000\u0000\u0000\u0000\u0000\u0000\u0000\u0000\u0000\u0000\u0000\u0000\u0000\u0000\u0000\u0000\u0000\u0000\u0000\u0000\u0000\u0000\u0000",
        "\u0000\u0000\u0000\u0000\u0000\u0000\u0000\u0000\u0000\u0000\u0000\u0000\u0000\u0000\u0000\u0000\u0000\u0000\u0000\u0000\u0000\u0000\u0000\u0000",
        "\u0000\u0000\u0000\u0000\u0000\u0000\u0000\u0000\u0000\u0000\u0000\u0000\u0000\u0000\u0000\u0000\u0000\u0000\u0000\u0000\u0000\u0000\u0000\u0000\u0000\u0000",
        "\u0000\u0000\u0000\u0000\u0000\u0000\u0000\u0000\u0000\u0000\u0000\u0000\u0000\u0000\u0000\u0000\u0000\u0000\u0000\u0000\u0000\u0000\u0000\u0000\u0000\u0000",
        "\u0000\u0000\u0000\u0000\u0000\u0000\u0000\u0000\u0000\u0000\u0000\u0000\u0000\u0000\u0000\u0000\u0000\u0000\u0000\u0000\u0000\u0000\u0000\u0000\u0000\u0000",
        "\u0000\u0000\u0000\u0000\u0000\u0000\u0000\u0000\u0000\u0000\u0000\u0000\u0000\u0000\u0000\u0000\u0000\u0000\u0000\u0000\u0000\u0000\u0000\u0000",
        "\u0000\u0000\u0000\u0000\u0000\u0000\u0000\u0000\u0000\u0000\u0000\u0000\u0000\u0000\u0000\u0000\u0000\u0000\u0000\u0000\u0000\u0000\u0000\u0000",
        "\u0000\u0000\u0000\u0000\u0000\u0000\u0000\u0000\u0000\u0000\u0000\u0000\u0000\u0000\u0000\u0000\u0000\u0000\u0000\u0000",
        "\u0000\u0000\u0000\u0000\u0000\u0000\u0000\u0000\u0000\u0000\u0000\u0000\u0000\u0000\u0000\u0000\u0000\u0000\u0000\u0000\u0000\u0000",
        "\u0000\u0000\u0000\u0000\u0000\u0000\u0000\u0000\u0000\u0000\u0000\u0000\u0000\u0000\u0000\u0000\u0000\u0000\u0000\u0000",
        "\u0000\u0000\u0000\u0000\u0000\u0000\u0000\u0000\u0000\u0000\u0000\u0000\u0000\u0000\u0000\u0000\u0000\u0000\u0000\u0000",
        "\u0000\u0000\u0000\u0000\u0000\u0000\u0000\u0000\u0000\u0000\u0000\u0000\u0000\u0000\u0000\u0000\u0000\u0000\u0000\u0000",
        "\u0000\u0000\u0000\u0000\u0000\u0000\u0000\u0000\u0000\u0000\u0000\u0000\u0000\u0000\u0000\u0000\u0000\u0000\u0000\u0000",
        "\u0000\u0000\u0000\u0000\u0000\u0000\u0000\u0000\u0000\u0000\u0000\u0000\u0000\u0000\u0000\u0000\u0000\u0000\u0000\u0000\u0000\u0000\u0000\u0000",
        "\u0000\u0000\u0000\u0000\u0000\u0000\u0000\u0000\u0000\u0000\u0000\u0000\u0000\u0000\u0000\u0000\u0000\u0000\u0000\u0000",
