{
  "AcquisitionMatrixPE": 110,
  "AcquisitionNumber": 1,
  "AcquisitionTime": "19:03:43.747500",
  "BandwidthPerPixelPhaseEncode": 26.35,
  "BaseResolution": 110,
  "CoilString": "C:HEA;HEP",
  "ConversionSoftware": "dcm2niix",
  "ConversionSoftwareVersion": "v1.0.20190410  GCC6.3.0",
  "DerivedVendorReportedEchoSpacing": 0.000690012,
  "DeviceSerialNumber": "35422",
  "DwellTime": 2.6e-06,
  "EchoTime": 0.03,
  "EffectiveEchoSpacing": 0.000345006,
  "FlipAngle": 85,
  "ImageComments": "Unaliased_MB4_PE4_LB",
  "ImageOrientationPatientDICOM": [0.997473, -0.0126822, -0.0699056, 4.04385e-10, 0.983939, -0.178505],
  "ImageType": [
    "ORIGINAL",
    "PRIMARY",
    "FMRI",
    "NONE",
    "MB",
    "ND",
    "MOSAIC"
],
  "ImagingFrequency": 123.178,
  "InPlanePhaseEncodingDirectionDICOM": "ROW",
  "InstitutionAddress": "kwanakro_599_C4F276_Seoul_KR_ZIP",
  "InstitutionName": "SNUBIC",
  "InstitutionalDepartmentName": "Department",
  "MRAcquisitionType": "2D",
  "MagneticFieldStrength": 3,
  "Manufacturer": "Siemens",
  "ManufacturersModelName": "TrioTim",
  "Modality": "MR",
  "MultibandAccelerationFactor": 4,
  "ParallelReductionFactorInPlane": 2,
  "PartialFourier": 1,
  "PatientPosition": "HFS",
  "PercentPhaseFOV": 100,
  "PhaseEncodingDirection": "i-",
  "PhaseEncodingSteps": 110,
  "PhaseResolution": 1,
  "PixelBandwidth": 1748,
  "ProcedureStepDescription": "SNU_SAVED",
  "ProtocolName": "WMGNG2_MB4_LR_SBRef",
  "PulseSequenceDetails": "%CustomerSeq%_cmrr_mbep2d_bold",
  "ReceiveCoilName": "32Ch_Head",
  "ReconMatrixPE": 110,
  "RefLinesPE": 32,
  "RepetitionTime": 1.5,
  "SAR": 0.129916,
  "ScanOptions": "FS",
  "ScanningSequence": "EP",
  "SequenceName": "epfid2d1_110",
  "SequenceVariant": "SK_SS",
  "SeriesDescription": "WMGNG2_MB4_LR_SBRef",
  "SeriesNumber": 8,
  "ShimSetting": [-4186, -29784, -2001, 773, -93, 432, -49, 43],
  "SliceThickness": 2.3,
  "SliceTiming": [0, 0.66, 1.3175, 0.4725, 1.13, 0.2825, 0.9425, 0.095, 0.755, 1.4125, 0.565, 1.225, 0.3775, 1.035, 0.19, 0.8475, 0, 0.66, 1.3175, 0.4725, 1.13, 0.2825, 0.9425, 0.095, 0.755, 1.4125, 0.565, 1.225, 0.3775, 1.035, 0.19, 0.8475, 0, 0.66, 1.3175, 0.4725, 1.13, 0.2825, 0.9425, 0.095, 0.755, 1.4125, 0.565, 1.225, 0.3775, 1.035, 0.19, 0.8475, 0, 0.66, 1.3175, 0.4725, 1.13, 0.2825, 0.9425, 0.095, 0.755, 1.4125, 0.565, 1.225, 0.3775, 1.035, 0.19, 0.8475],
  "SoftwareVersions": "syngo_MR_B17",
  "SpacingBetweenSlices": 2.3,
  "StationName": "MRC35422",
  "TaskName": "wmgng",
  "TotalReadoutTime": 0.0376057,
  "TxRefAmp": 317.361,
  "dcmmeta_affine": [
    [-2.3213915824890137, 9.411134094250428e-10, -0.1634073406457901, 130.10183715820312],
    [0.029514877125620842, 2.2898943424224854, -0.409523606300354, -115.39996337890625],
    [-0.16268937289714813, 0.41542941331863403, 2.257340908050537, -62.960330963134766],
    [0.0, 0.0, 0.0, 1.0]
],
  "dcmmeta_reorient_transform": [
    [0.0, -1.0, 0.0, 109.0],
    [1.0, 0.0, 0.0, 0.0],
    [0.0, 0.0, 1.0, 0.0],
    [0.0, 0.0, 0.0, 1.0]
],
  "dcmmeta_shape": [110, 110, 64, 357],
  "dcmmeta_slice_dim": 2,
  "dcmmeta_version": 0.6,
  "global": {
    "const": {
      "AcquisitionMatrix": [0, 110, 110, 0],
      "AngioFlag": "N",
      "BitsAllocated": 16,
      "BitsStored": 12,
      "Columns": 880,
      "EchoNumbers": 1,
      "EchoTime": 30.0,
      "EchoTrainLength": 1,
      "FlipAngle": 85.0,
      "HighBit": 11,
      "ImageOrientationPatient": [0.99747299242284, -0.0126821744594, -0.0699055923229, 4.043847e-10, 0.98393903496794, -0.1785048331737],
      "ImagePositionPatient": [-1023.8376083803, -1004.4446458361, 204.89720814455],
      "ImageType": [
        "ORIGINAL",
        "PRIMARY",
        "FMRI",
        "NONE",
        "MB",
        "ND",
        "MOSAIC"
],
      "ImagedNucleus": "1H",
      "ImagingFrequency": 123.177507,
      "InPlanePhaseEncodingDirection": "ROW",
      "MRAcquisitionType": "2D",
      "MagneticFieldStrength": 3.0,
      "Manufacturer": "SIEMENS",
      "ManufacturerModelName": "TrioTim",
      "Modality": "MR",
      "NumberOfAverages": 1.0,
      "NumberOfPhaseEncodingSteps": 110,
      "PercentPhaseFieldOfView": 100.0,
      "PercentSampling": 100.0,
      "PerformedProcedureStepStartTime": "183952.453000",
      "PhotometricInterpretation": "MONOCHROME2",
      "PixelBandwidth": 1748.0,
      "PixelRepresentation": 0,
      "PixelSpacing": [2.3272726535797, 2.3272726535797],
      "ProtocolName": "WMGNG2_MB4_LR_SBRef",
      "ReferencedPerformedProcedureStepSequence": [
        {
          "ReferencedSOPClassUID": "1.2.840.10008.3.1.2.3.3",
          "ReferencedSOPInstanceUID": "1.3.12.2.1107.5.2.32.35422.30000019112200213225000000004"}
],
      "RepetitionTime": 1500.0,
      "Rows": 880,
      "SAR": 0.1299161769314,
      "SamplesPerPixel": 1,
      "ScanOptions": "FS",
      "ScanningSequence": "EP",
      "SequenceName": "epfid2d1_110",
      "SequenceVariant": [
        "SK",
        "SS"
],
      "SeriesDescription": "WMGNG2_MB4_LR_SBRef",
      "SeriesNumber": 8,
      "SeriesTime": "190928.453000",
      "SliceLocation": -50.488488683347,
      "SliceThickness": 2.2999999523163,
      "SmallestImagePixelValue": 0,
      "SoftwareVersions": "syngo MR B17",
      "SpacingBetweenSlices": 2.2999999222233,
      "SpecificCharacterSet": "ISO_IR 100",
      "StudyID": "1",
      "StudyTime": "183952.375000",
      "TransmitCoilName": "Body",
      "VariableFlipAngleFlag": "N",
      "WindowCenterWidthExplanation": "Algo1",
      "dBdt": 0.0},
    "slices": {}
  },
  "time": {
    "samples": {
      "AcquisitionNumber": [1, 2, 3, 4, 5, 6, 7, 8, 9, 10, 11, 12, 13, 14, 15, 16, 17, 18, 19, 20, 21, 22, 23, 24, 25, 26, 27, 28, 29, 30, 31, 32, 33, 34, 35, 36, 37, 38, 39, 40, 41, 42, 43, 44, 45, 46, 47, 48, 49, 50, 51, 52, 53, 54, 55, 56, 57, 58, 59, 60, 61, 62, 63, 64, 65, 66, 67, 68, 69, 70, 71, 72, 73, 74, 75, 76, 77, 78, 79, 80, 81, 82, 83, 84, 85, 86, 87, 88, 89, 90, 91, 92, 93, 94, 95, 96, 97, 98, 99, 100, 101, 102, 103, 104, 105, 106, 107, 108, 109, 110, 111, 112, 113, 114, 115, 116, 117, 118, 119, 120, 121, 122, 123, 124, 125, 126, 127, 128, 129, 130, 131, 132, 133, 134, 135, 136, 137, 138, 139, 140, 141, 142, 143, 144, 145, 146, 147, 148, 149, 150, 151, 152, 153, 154, 155, 156, 157, 158, 159, 160, 161, 162, 163, 164, 165, 166, 167, 168, 169, 170, 171, 172, 173, 174, 175, 176, 177, 178, 179, 180, 181, 182, 183, 184, 185, 186, 187, 188, 189, 190, 191, 192, 193, 194, 195, 196, 197, 198, 199, 200, 201, 202, 203, 204, 205, 206, 207, 208, 209, 210, 211, 212, 213, 214, 215, 216, 217, 218, 219, 220, 221, 222, 223, 224, 225, 226, 227, 228, 229, 230, 231, 232, 233, 234, 235, 236, 237, 238, 239, 240, 241, 242, 243, 244, 245, 246, 247, 248, 249, 250, 251, 252, 253, 254, 255, 256, 257, 258, 259, 260, 261, 262, 263, 264, 265, 266, 267, 268, 269, 270, 271, 272, 273, 274, 275, 276, 277, 278, 279, 280, 281, 282, 283, 284, 285, 286, 287, 288, 289, 290, 291, 292, 293, 294, 295, 296, 297, 298, 299, 300, 301, 302, 303, 304, 305, 306, 307, 308, 309, 310, 311, 312, 313, 314, 315, 316, 317, 318, 319, 320, 321, 322, 323, 324, 325, 326, 327, 328, 329, 330, 331, 332, 333, 334, 335, 336, 337, 338, 339, 340, 341, 342, 343, 344, 345, 346, 347, 348, 349, 350, 351, 352, 353, 354, 355, 356, 357],
      "AcquisitionTime": ["190343.747500", "190345.255000", "190346.760000", "190348.267500", "190349.772500", "190351.277500", "190352.785000", "190354.290000", "190355.797500", "190357.302500", "190358.807500", "190400.315000", "190401.820000", "190403.327500", "190404.832500", "190406.340000", "190407.845000", "190409.350000", "190410.857500", "190412.362500", "190413.870000", "190415.375000", "190416.880000", "190418.387500", "190419.892500", "190421.400000", "190422.905000", "190424.410000", "190425.917500", "190427.422500", "190428.930000", "190430.435000", "190431.942500", "190433.447500", "190434.952500", "190436.460000", "190437.965000", "190439.472500", "190440.977500", "190442.482500", "190443.990000", "190445.495000", "190447.002500", "190448.507500", "190450.012500", "190451.520000", "190453.025000", "190454.532500", "190456.037500", "190457.542500", "190459.050000", "190500.555000", "190502.062500", "190503.567500", "190505.075000", "190506.580000", "190508.085000", "190509.592500", "190511.097500", "190512.605000", "190514.110000", "190515.615000", "190517.122500", "190518.627500", "190520.135000", "190521.640000", "190523.145000", "190524.652500", "190526.157500", "190527.665000", "190529.170000", "190530.675000", "190532.182500", "190533.687500", "190535.195000", "190536.700000", "190538.207500", "190539.712500", "190541.217500", "190542.725000", "190544.230000", "190545.737500", "190547.242500", "190548.747500", "190550.255000", "190551.760000", "190553.267500", "190554.772500", "190556.277500", "190557.785000", "190559.290000", "190600.797500", "190602.302500", "190603.807500", "190605.315000", "190606.820000", "190608.327500", "190609.832500", "190611.340000", "190612.845000", "190614.350000", "190615.857500", "190617.362500", "190618.870000", "190620.375000", "190621.880000", "190623.387500", "190624.892500", "190626.400000", "190627.905000", "190629.410000", "190630.917500", "190632.422500", "190633.930000", "190635.435000", "190636.942500", "190638.447500", "190639.952500", "190641.460000", "190642.965000", "190644.472500", "190645.977500", "190647.482500", "190648.990000", "190650.495000", "190652.002500", "190653.507500", "190655.012500", "190656.520000", "190658.025000", "190659.532500", "190701.037500", "190702.542500", "190704.050000", "190705.555000", "190707.062500", "190708.567500", "190710.075000", "190711.580000", "190713.085000", "190714.592500", "190716.097500", "190717.605000", "190719.110000", "190720.615000", "190722.122500", "190723.627500", "190725.135000", "190726.640000", "190728.145000", "190729.652500", "190731.157500", "190732.665000", "190734.170000", "190735.675000", "190737.182500", "190738.687500", "190740.195000", "190741.700000", "190743.207500", "190744.712500", "190746.217500", "190747.725000", "190749.230000", "190750.737500", "190752.242500", "190753.747500", "190755.255000", "190756.760000", "190758.267500", "190759.772500", "190801.277500", "190802.785000", "190804.290000", "190805.797500", "190807.302500", "190808.807500", "190810.315000", "190811.820000", "190813.327500", "190814.832500", "190816.340000", "190817.845000", "190819.350000", "190820.857500", "190822.362500", "190823.870000", "190825.375000", "190826.880000", "190828.387500", "190829.892500", "190831.400000", "190832.905000", "190834.410000", "190835.917500", "190837.422500", "190838.930000", "190840.435000", "190841.942500", "190843.447500", "190844.952500", "190846.460000", "190847.965000", "190849.472500", "190850.977500", "190852.482500", "190853.990000", "190855.495000", "190857.002500", "190858.507500", "190900.012500", "190901.520000", "190903.025000", "190904.532500", "190906.037500", "190907.542500", "190909.050000", "190910.555000", "190912.062500", "190913.567500", "190915.075000", "190916.580000", "190918.085000", "190919.592500", "190921.097500", "190922.605000", "190924.110000", "190925.615000", "190927.122500", "190928.627500", "190930.135000", "190931.640000", "190933.145000", "190934.652500", "190936.157500", "190937.665000", "190939.170000", "190940.675000", "190942.182500", "190943.687500", "190945.195000", "190946.700000", "190948.207500", "190949.712500", "190951.217500", "190952.725000", "190954.230000", "190955.737500", "190957.242500", "190958.747500", "191000.255000", "191001.760000", "191003.267500", "191004.772500", "191006.277500", "191007.785000", "191009.290000", "191010.797500", "191012.302500", "191013.807500", "191015.315000", "191016.820000", "191018.327500", "191019.832500", "191021.340000", "191022.845000", "191024.350000", "191025.857500", "191027.362500", "191028.870000", "191030.375000", "191031.880000", "191033.387500", "191034.892500", "191036.400000", "191037.905000", "191039.410000", "191040.917500", "191042.422500", "191043.930000", "191045.435000", "191046.942500", "191048.447500", "191049.952500", "191051.460000", "191052.965000", "191054.472500", "191055.977500", "191057.482500", "191058.990000", "191100.495000", "191102.002500", "191103.507500", "191105.012500", "191106.520000", "191108.025000", "191109.532500", "191111.037500", "191112.542500", "191114.050000", "191115.555000", "191117.062500", "191118.567500", "191120.075000", "191121.580000", "191123.085000", "191124.592500", "191126.097500", "191127.605000", "191129.110000", "191130.615000", "191132.122500", "191133.627500", "191135.135000", "191136.640000", "191138.145000", "191139.652500", "191141.157500", "191142.665000", "191144.170000", "191145.675000", "191147.182500", "191148.687500", "191150.195000", "191151.700000", "191153.207500", "191154.712500", "191156.217500", "191157.725000", "191159.230000", "191200.737500", "191202.242500", "191203.747500", "191205.255000", "191206.760000", "191208.267500", "191209.772500", "191211.277500", "191212.785000", "191214.290000", "191215.797500", "191217.302500", "191218.807500", "191220.315000", "191221.820000", "191223.327500", "191224.832500", "191226.340000", "191227.845000", "191229.350000", "191230.857500", "191232.362500", "191233.870000", "191235.375000", "191236.880000", "191238.387500", "191239.892500"],
      "ContentTime": ["190928.453000", "190928.468000", "190928.468000", "190928.468000", "190928.468000", "190928.468000", "190928.468000", "190928.468000", "190928.468000", "190928.468000", "190928.484000", "190928.484000", "190928.484000", "190928.484000", "190928.484000", "190928.484000", "190928.484000", "190928.484000", "190928.500000", "190928.500000", "190928.500000", "190928.500000", "190928.500000", "190928.515000", "190948.453000", "190948.453000", "190948.453000", "190948.453000", "190948.468000", "190948.468000", "190948.468000", "190948.468000", "190948.468000", "191048.453000", "191048.453000", "191048.453000", "191048.453000", "191048.468000", "191048.468000", "191048.468000", "191048.468000", "191048.468000", "191048.468000", "191048.468000", "191048.484000", "191048.484000", "191048.484000", "191048.484000", "191048.484000", "191048.484000", "191048.484000", "191048.484000", "191048.500000", "191048.500000", "191048.500000", "191048.500000", "191048.500000", "191048.500000", "191048.500000", "191148.453000", "191148.453000", "191148.453000", "191148.453000", "191148.468000", "191148.468000", "191148.468000", "191148.468000", "191148.468000", "191148.484000", "191148.484000", "191148.484000", "191148.484000", "191148.484000", "191148.484000", "191148.500000", "191148.500000", "191148.500000", "191148.500000", "191148.500000", "191148.500000", "191148.500000", "191148.500000", "191148.500000", "191148.515000", "191148.515000", "191248.453000", "191248.453000", "191248.453000", "191248.453000", "191248.468000", "191248.468000", "191248.468000", "191248.468000", "191248.468000", "191248.468000", "191248.468000", "191248.468000", "191248.468000", "191248.484000", "191248.484000", "191248.484000", "191248.484000", "191248.484000", "191248.484000", "191248.484000", "191248.500000", "191248.515000", "191248.515000", "191248.515000", "191248.515000", "191248.515000", "191348.453000", "191348.453000", "191348.453000", "191348.453000", "191348.468000", "191348.468000", "191348.468000", "191348.468000", "191348.468000", "191348.468000", "191348.468000", "191348.484000", "191348.484000", "191348.484000", "191348.484000", "191348.484000", "191348.484000", "191348.500000", "191348.500000", "191348.500000", "191348.500000", "191348.500000", "191348.500000", "191348.500000", "191348.500000", "191348.515000", "191448.453000", "191448.453000", "191448.453000", "191448.453000", "191448.453000", "191448.468000", "191448.484000", "191448.484000", "191448.484000", "191448.484000", "191448.484000", "191448.484000", "191448.484000", "191448.500000", "191448.500000", "191448.500000", "191448.500000", "191448.500000", "191448.500000", "191448.500000", "191448.500000", "191448.500000", "191448.515000", "191448.515000", "191448.515000", "191448.515000", "191548.453000", "191548.453000", "191548.468000", "191548.468000", "191548.468000", "191548.468000", "191548.468000", "191548.468000", "191548.484000", "191548.500000", "191548.500000", "191548.500000", "191548.500000", "191548.500000", "191548.500000", "191548.515000", "191548.515000", "191548.531000", "191548.531000", "191548.531000", "191548.531000", "191548.531000", "191548.546000", "191548.546000", "191548.546000", "191648.453000", "191648.453000", "191648.453000", "191648.453000", "191648.468000", "191648.468000", "191648.468000", "191648.468000", "191648.468000", "191648.484000", "191648.484000", "191648.484000", "191648.484000", "191648.484000", "191648.484000", "191648.484000", "191648.484000", "191648.500000", "191648.500000", "191648.500000", "191648.500000", "191648.500000", "191648.500000", "191648.500000", "191648.500000", "191648.500000", "191748.453000", "191748.453000", "191748.453000", "191748.453000", "191748.468000", "191748.468000", "191748.468000", "191748.468000", "191748.468000", "191748.468000", "191748.468000", "191748.468000", "191748.468000", "191748.484000", "191748.484000", "191748.484000", "191748.484000", "191748.484000", "191748.484000", "191748.500000", "191748.500000", "191748.500000", "191748.500000", "191748.500000", "191748.500000", "191748.500000", "191748.500000", "191848.453000", "191848.453000", "191848.453000", "191848.453000", "191848.468000", "191848.468000", "191848.468000", "191848.468000", "191848.468000", "191848.468000", "191848.468000", "191848.468000", "191848.484000", "191848.484000", "191848.484000", "191848.484000", "191848.484000", "191848.484000", "191848.484000", "191848.484000", "191848.500000", "191848.500000", "191848.500000", "191848.500000", "191848.500000", "191848.500000", "191948.453000", "191948.453000", "191948.453000", "191948.453000", "191948.468000", "191948.468000", "191948.468000", "191948.468000", "191948.468000", "191948.468000", "191948.468000", "191948.468000", "191948.484000", "191948.484000", "191948.484000", "191948.484000", "191948.484000", "191948.484000", "191948.484000", "191948.500000", "191948.500000", "191948.500000", "191948.500000", "191948.500000", "191948.500000", "191948.500000", "192048.453000", "192048.453000", "192048.453000", "192048.484000", "192048.484000", "192048.484000", "192048.484000", "192048.484000", "192048.500000", "192048.500000", "192048.500000", "192048.500000", "192048.500000", "192048.515000", "192048.515000", "192048.515000", "192048.515000", "192048.515000", "192048.515000", "192048.531000", "192048.531000", "192048.531000", "192048.531000", "192048.531000", "192048.531000", "192148.453000", "192148.453000", "192148.453000", "192148.453000", "192148.468000", "192148.468000", "192148.468000", "192148.468000", "192148.468000", "192148.468000", "192148.468000", "192148.468000", "192148.468000", "192148.484000", "192148.484000", "192148.484000", "192148.484000", "192148.500000", "192148.500000", "192148.500000", "192148.500000", "192148.500000", "192148.500000", "192148.500000", "192148.515000", "192148.515000", "192216.968000", "192216.968000", "192216.968000", "192216.984000", "192216.984000", "192216.984000", "192216.984000", "192216.984000", "192216.984000", "192216.984000", "192216.984000", "192217.000000", "192217.000000"],
      "DataSetTrailingPadding": [
        "\u0000\u0000\u0000\u0000\u0000\u0000\u0000\u0000\u0000\u0000\u0000\u0000\u0000\u0000\u0000\u0000\u0000\u0000\u0000\u0000\u0000\u0000\u0000\u0000\u0000\u0000\u0000\u0000\u0000\u0000\u0000\u0000\u0000\u0000\u0000\u0000\u0000\u0000\u0000\u0000\u0000\u0000\u0000\u0000\u0000\u0000\u0000\u0000\u0000\u0000\u0000\u0000\u0000\u0000\u0000\u0000\u0000\u0000\u0000\u0000\u0000\u0000\u0000\u0000\u0000\u0000\u0000\u0000\u0000\u0000\u0000\u0000\u0000\u0000\u0000\u0000\u0000\u0000\u0000\u0000\u0000\u0000\u0000\u0000\u0000\u0000\u0000\u0000\u0000\u0000\u0000\u0000\u0000\u0000\u0000\u0000\u0000\u0000\u0000\u0000\u0000\u0000\u0000\u0000\u0000\u0000\u0000\u0000\u0000\u0000\u0000\u0000\u0000\u0000\u0000\u0000\u0000\u0000\u0000\u0000\u0000\u0000\u0000\u0000\u0000\u0000\u0000\u0000\u0000\u0000\u0000\u0000\u0000\u0000\u0000\u0000\u0000\u0000\u0000\u0000\u0000\u0000\u0000\u0000\u0000\u0000\u0000\u0000\u0000\u0000\u0000\u0000\u0000\u0000\u0000\u0000\u0000\u0000\u0000\u0000\u0000\u0000\u0000\u0000\u0000\u0000\u0000\u0000\u0000\u0000",
        "\u0000\u0000\u0000\u0000\u0000\u0000\u0000\u0000\u0000\u0000\u0000\u0000\u0000\u0000\u0000\u0000\u0000\u0000\u0000\u0000\u0000\u0000\u0000\u0000\u0000\u0000\u0000\u0000\u0000\u0000\u0000\u0000\u0000\u0000\u0000\u0000\u0000\u0000\u0000\u0000\u0000\u0000\u0000\u0000\u0000\u0000\u0000\u0000\u0000\u0000\u0000\u0000\u0000\u0000\u0000\u0000\u0000\u0000\u0000\u0000\u0000\u0000\u0000\u0000\u0000\u0000\u0000\u0000\u0000\u0000\u0000\u0000\u0000\u0000\u0000\u0000\u0000\u0000\u0000\u0000\u0000\u0000\u0000\u0000\u0000\u0000\u0000\u0000\u0000\u0000\u0000\u0000\u0000\u0000\u0000\u0000\u0000\u0000\u0000\u0000\u0000\u0000\u0000\u0000\u0000\u0000\u0000\u0000\u0000\u0000\u0000\u0000\u0000\u0000\u0000\u0000\u0000\u0000\u0000\u0000\u0000\u0000\u0000\u0000\u0000\u0000\u0000\u0000\u0000\u0000\u0000\u0000\u0000\u0000\u0000\u0000\u0000\u0000\u0000\u0000\u0000\u0000\u0000\u0000\u0000\u0000\u0000\u0000\u0000\u0000\u0000\u0000\u0000\u0000\u0000\u0000\u0000\u0000\u0000\u0000\u0000\u0000\u0000\u0000\u0000\u0000\u0000\u0000\u0000\u0000",
        "\u0000\u0000\u0000\u0000\u0000\u0000\u0000\u0000\u0000\u0000\u0000\u0000\u0000\u0000\u0000\u0000\u0000\u0000\u0000\u0000\u0000\u0000\u0000\u0000\u0000\u0000\u0000\u0000\u0000\u0000\u0000\u0000\u0000\u0000\u0000\u0000\u0000\u0000\u0000\u0000\u0000\u0000\u0000\u0000\u0000\u0000\u0000\u0000\u0000\u0000\u0000\u0000\u0000\u0000\u0000\u0000\u0000\u0000\u0000\u0000\u0000\u0000\u0000\u0000\u0000\u0000\u0000\u0000\u0000\u0000\u0000\u0000\u0000\u0000\u0000\u0000\u0000\u0000\u0000\u0000\u0000\u0000\u0000\u0000\u0000\u0000\u0000\u0000\u0000\u0000\u0000\u0000\u0000\u0000\u0000\u0000\u0000\u0000\u0000\u0000\u0000\u0000\u0000\u0000\u0000\u0000\u0000\u0000\u0000\u0000\u0000\u0000\u0000\u0000\u0000\u0000\u0000\u0000\u0000\u0000\u0000\u0000\u0000\u0000\u0000\u0000\u0000\u0000\u0000\u0000\u0000\u0000\u0000\u0000\u0000\u0000\u0000\u0000\u0000\u0000\u0000\u0000\u0000\u0000\u0000\u0000\u0000\u0000\u0000\u0000\u0000\u0000\u0000\u0000\u0000\u0000\u0000\u0000\u0000\u0000\u0000\u0000\u0000\u0000\u0000\u0000\u0000\u0000",
        "\u0000\u0000\u0000\u0000\u0000\u0000\u0000\u0000\u0000\u0000\u0000\u0000\u0000\u0000\u0000\u0000\u0000\u0000\u0000\u0000\u0000\u0000\u0000\u0000\u0000\u0000\u0000\u0000\u0000\u0000\u0000\u0000\u0000\u0000\u0000\u0000\u0000\u0000\u0000\u0000\u0000\u0000\u0000\u0000\u0000\u0000\u0000\u0000\u0000\u0000\u0000\u0000\u0000\u0000\u0000\u0000\u0000\u0000\u0000\u0000\u0000\u0000\u0000\u0000\u0000\u0000\u0000\u0000\u0000\u0000\u0000\u0000\u0000\u0000\u0000\u0000\u0000\u0000\u0000\u0000\u0000\u0000\u0000\u0000\u0000\u0000\u0000\u0000\u0000\u0000\u0000\u0000\u0000\u0000\u0000\u0000\u0000\u0000\u0000\u0000\u0000\u0000\u0000\u0000\u0000\u0000\u0000\u0000\u0000\u0000\u0000\u0000\u0000\u0000\u0000\u0000\u0000\u0000\u0000\u0000\u0000\u0000\u0000\u0000\u0000\u0000\u0000\u0000\u0000\u0000\u0000\u0000\u0000\u0000\u0000\u0000\u0000\u0000\u0000\u0000\u0000\u0000\u0000\u0000\u0000\u0000\u0000\u0000\u0000\u0000\u0000\u0000\u0000\u0000\u0000\u0000\u0000\u0000\u0000\u0000\u0000\u0000\u0000\u0000\u0000\u0000\u0000\u0000",
        "\u0000\u0000\u0000\u0000\u0000\u0000\u0000\u0000\u0000\u0000\u0000\u0000\u0000\u0000\u0000\u0000\u0000\u0000\u0000\u0000\u0000\u0000\u0000\u0000\u0000\u0000\u0000\u0000\u0000\u0000\u0000\u0000\u0000\u0000\u0000\u0000\u0000\u0000\u0000\u0000\u0000\u0000\u0000\u0000\u0000\u0000\u0000\u0000\u0000\u0000\u0000\u0000\u0000\u0000\u0000\u0000\u0000\u0000\u0000\u0000\u0000\u0000\u0000\u0000\u0000\u0000\u0000\u0000\u0000\u0000\u0000\u0000\u0000\u0000\u0000\u0000\u0000\u0000\u0000\u0000\u0000\u0000\u0000\u0000\u0000\u0000\u0000\u0000\u0000\u0000\u0000\u0000\u0000\u0000\u0000\u0000\u0000\u0000\u0000\u0000\u0000\u0000\u0000\u0000\u0000\u0000\u0000\u0000\u0000\u0000\u0000\u0000\u0000\u0000\u0000\u0000\u0000\u0000\u0000\u0000\u0000\u0000\u0000\u0000\u0000\u0000\u0000\u0000\u0000\u0000\u0000\u0000\u0000\u0000\u0000\u0000\u0000\u0000\u0000\u0000\u0000\u0000\u0000\u0000\u0000\u0000\u0000\u0000\u0000\u0000\u0000\u0000\u0000\u0000\u0000\u0000\u0000\u0000\u0000\u0000\u0000\u0000\u0000\u0000\u0000\u0000\u0000\u0000\u0000\u0000",
        "\u0000\u0000\u0000\u0000\u0000\u0000\u0000\u0000\u0000\u0000\u0000\u0000\u0000\u0000\u0000\u0000\u0000\u0000\u0000\u0000\u0000\u0000\u0000\u0000\u0000\u0000\u0000\u0000\u0000\u0000\u0000\u0000\u0000\u0000\u0000\u0000\u0000\u0000\u0000\u0000\u0000\u0000\u0000\u0000\u0000\u0000\u0000\u0000\u0000\u0000\u0000\u0000\u0000\u0000\u0000\u0000\u0000\u0000\u0000\u0000\u0000\u0000\u0000\u0000\u0000\u0000\u0000\u0000\u0000\u0000\u0000\u0000\u0000\u0000\u0000\u0000\u0000\u0000\u0000\u0000\u0000\u0000\u0000\u0000\u0000\u0000\u0000\u0000\u0000\u0000\u0000\u0000\u0000\u0000\u0000\u0000\u0000\u0000\u0000\u0000\u0000\u0000\u0000\u0000\u0000\u0000\u0000\u0000\u0000\u0000\u0000\u0000\u0000\u0000\u0000\u0000\u0000\u0000\u0000\u0000\u0000\u0000\u0000\u0000\u0000\u0000\u0000\u0000\u0000\u0000\u0000\u0000\u0000\u0000\u0000\u0000\u0000\u0000\u0000\u0000\u0000\u0000\u0000\u0000\u0000\u0000\u0000\u0000\u0000\u0000\u0000\u0000\u0000\u0000\u0000\u0000\u0000\u0000\u0000\u0000\u0000\u0000\u0000\u0000\u0000\u0000\u0000\u0000\u0000\u0000",
        "\u0000\u0000\u0000\u0000\u0000\u0000\u0000\u0000\u0000\u0000\u0000\u0000\u0000\u0000\u0000\u0000\u0000\u0000\u0000\u0000\u0000\u0000\u0000\u0000\u0000\u0000\u0000\u0000\u0000\u0000\u0000\u0000\u0000\u0000\u0000\u0000\u0000\u0000\u0000\u0000\u0000\u0000\u0000\u0000\u0000\u0000\u0000\u0000\u0000\u0000\u0000\u0000\u0000\u0000\u0000\u0000\u0000\u0000\u0000\u0000\u0000\u0000\u0000\u0000\u0000\u0000\u0000\u0000\u0000\u0000\u0000\u0000\u0000\u0000\u0000\u0000\u0000\u0000\u0000\u0000\u0000\u0000\u0000\u0000\u0000\u0000\u0000\u0000\u0000\u0000\u0000\u0000\u0000\u0000\u0000\u0000\u0000\u0000\u0000\u0000\u0000\u0000\u0000\u0000\u0000\u0000\u0000\u0000\u0000\u0000\u0000\u0000\u0000\u0000\u0000\u0000\u0000\u0000\u0000\u0000\u0000\u0000\u0000\u0000\u0000\u0000\u0000\u0000\u0000\u0000\u0000\u0000\u0000\u0000\u0000\u0000\u0000\u0000\u0000\u0000\u0000\u0000\u0000\u0000\u0000\u0000\u0000\u0000\u0000\u0000\u0000\u0000\u0000\u0000\u0000\u0000\u0000\u0000\u0000\u0000\u0000\u0000\u0000\u0000\u0000\u0000\u0000\u0000\u0000\u0000\u0000\u0000",
        "\u0000\u0000\u0000\u0000\u0000\u0000\u0000\u0000\u0000\u0000\u0000\u0000\u0000\u0000\u0000\u0000\u0000\u0000\u0000\u0000\u0000\u0000\u0000\u0000\u0000\u0000\u0000\u0000\u0000\u0000\u0000\u0000\u0000\u0000\u0000\u0000\u0000\u0000\u0000\u0000\u0000\u0000\u0000\u0000\u0000\u0000\u0000\u0000\u0000\u0000\u0000\u0000\u0000\u0000\u0000\u0000\u0000\u0000\u0000\u0000\u0000\u0000\u0000\u0000\u0000\u0000\u0000\u0000\u0000\u0000\u0000\u0000\u0000\u0000\u0000\u0000\u0000\u0000\u0000\u0000\u0000\u0000\u0000\u0000\u0000\u0000\u0000\u0000\u0000\u0000\u0000\u0000\u0000\u0000\u0000\u0000\u0000\u0000\u0000\u0000\u0000\u0000\u0000\u0000\u0000\u0000\u0000\u0000\u0000\u0000\u0000\u0000\u0000\u0000\u0000\u0000\u0000\u0000\u0000\u0000\u0000\u0000\u0000\u0000\u0000\u0000\u0000\u0000\u0000\u0000\u0000\u0000\u0000\u0000\u0000\u0000\u0000\u0000\u0000\u0000\u0000\u0000\u0000\u0000\u0000\u0000\u0000\u0000\u0000\u0000\u0000\u0000\u0000\u0000\u0000\u0000\u0000\u0000\u0000\u0000\u0000\u0000\u0000\u0000\u0000\u0000\u0000\u0000",
        "\u0000\u0000\u0000\u0000\u0000\u0000\u0000\u0000\u0000\u0000\u0000\u0000\u0000\u0000\u0000\u0000\u0000\u0000\u0000\u0000\u0000\u0000\u0000\u0000\u0000\u0000\u0000\u0000\u0000\u0000\u0000\u0000\u0000\u0000\u0000\u0000\u0000\u0000\u0000\u0000\u0000\u0000\u0000\u0000\u0000\u0000\u0000\u0000\u0000\u0000\u0000\u0000\u0000\u0000\u0000\u0000\u0000\u0000\u0000\u0000\u0000\u0000\u0000\u0000\u0000\u0000\u0000\u0000\u0000\u0000\u0000\u0000\u0000\u0000\u0000\u0000\u0000\u0000\u0000\u0000\u0000\u0000\u0000\u0000\u0000\u0000\u0000\u0000\u0000\u0000\u0000\u0000\u0000\u0000\u0000\u0000\u0000\u0000\u0000\u0000\u0000\u0000\u0000\u0000\u0000\u0000\u0000\u0000\u0000\u0000\u0000\u0000\u0000\u0000\u0000\u0000\u0000\u0000\u0000\u0000\u0000\u0000\u0000\u0000\u0000\u0000\u0000\u0000\u0000\u0000\u0000\u0000\u0000\u0000\u0000\u0000\u0000\u0000\u0000\u0000\u0000\u0000\u0000\u0000\u0000\u0000\u0000\u0000\u0000\u0000\u0000\u0000\u0000\u0000\u0000\u0000\u0000\u0000\u0000\u0000\u0000\u0000\u0000\u0000\u0000\u0000\u0000\u0000",
        "\u0000\u0000\u0000\u0000\u0000\u0000\u0000\u0000\u0000\u0000\u0000\u0000\u0000\u0000\u0000\u0000\u0000\u0000\u0000\u0000\u0000\u0000\u0000\u0000\u0000\u0000\u0000\u0000\u0000\u0000\u0000\u0000\u0000\u0000\u0000\u0000\u0000\u0000\u0000\u0000\u0000\u0000\u0000\u0000\u0000\u0000\u0000\u0000\u0000\u0000\u0000\u0000\u0000\u0000\u0000\u0000\u0000\u0000\u0000\u0000\u0000\u0000\u0000\u0000\u0000\u0000\u0000\u0000\u0000\u0000\u0000\u0000\u0000\u0000\u0000\u0000\u0000\u0000\u0000\u0000\u0000\u0000\u0000\u0000\u0000\u0000\u0000\u0000\u0000\u0000\u0000\u0000\u0000\u0000\u0000\u0000\u0000\u0000\u0000\u0000\u0000\u0000\u0000\u0000\u0000\u0000\u0000\u0000\u0000\u0000\u0000\u0000\u0000\u0000\u0000\u0000\u0000\u0000\u0000\u0000\u0000\u0000\u0000\u0000\u0000\u0000\u0000\u0000\u0000\u0000\u0000\u0000\u0000\u0000\u0000\u0000\u0000\u0000\u0000\u0000\u0000\u0000\u0000\u0000\u0000\u0000\u0000\u0000\u0000\u0000\u0000\u0000\u0000\u0000\u0000\u0000\u0000\u0000\u0000\u0000\u0000\u0000\u0000\u0000\u0000\u0000\u0000\u0000\u0000\u0000",
