{
  "AcquisitionMatrixPE": 110,
  "AcquisitionNumber": 1,
  "AcquisitionTime": "13:17:33.425000",
  "BandwidthPerPixelPhaseEncode": 26.35,
  "BaseResolution": 110,
  "CoilString": "C:HEA;HEP",
  "ConversionSoftware": "dcm2niix",
  "ConversionSoftwareVersion": "v1.0.20190410  GCC6.3.0",
  "DerivedVendorReportedEchoSpacing": 0.000690012,
  "DeviceSerialNumber": "35422",
  "DwellTime": 2.6e-06,
  "EchoTime": 0.03,
  "EffectiveEchoSpacing": 0.000345006,
  "FlipAngle": 85,
  "ImageComments": "Unaliased_MB4_PE4_LB",
  "ImageOrientationPatientDICOM": [0.999997, -0.000520032, -0.00235418, 1.945e-10, 0.97646, -0.215697],
  "ImageType": [
    "ORIGINAL",
    "PRIMARY",
    "FMRI",
    "NONE",
    "MB",
    "ND",
    "MOSAIC"
],
  "ImagingFrequency": 123.177,
  "InPlanePhaseEncodingDirectionDICOM": "ROW",
  "InstitutionAddress": "kwanakro_599_C4F276_Seoul_KR_ZIP",
  "InstitutionName": "SNUBIC",
  "InstitutionalDepartmentName": "Department",
  "MRAcquisitionType": "2D",
  "MagneticFieldStrength": 3,
  "Manufacturer": "Siemens",
  "ManufacturersModelName": "TrioTim",
  "Modality": "MR",
  "MultibandAccelerationFactor": 4,
  "ParallelReductionFactorInPlane": 2,
  "PartialFourier": 1,
  "PatientPosition": "HFS",
  "PercentPhaseFOV": 100,
  "PhaseEncodingDirection": "i-",
  "PhaseEncodingSteps": 110,
  "PhaseResolution": 1,
  "PixelBandwidth": 1748,
  "ProcedureStepDescription": "SNU_SAVED",
  "ProtocolName": "WMGNG2_MB4_LR_SBRef",
  "PulseSequenceDetails": "%CustomerSeq%_cmrr_mbep2d_bold",
  "ReceiveCoilName": "32Ch_Head",
  "ReconMatrixPE": 110,
  "RefLinesPE": 32,
  "RepetitionTime": 1.5,
  "SAR": 0.133127,
  "ScanOptions": "FS",
  "ScanningSequence": "EP",
  "SequenceName": "epfid2d1_110",
  "SequenceVariant": "SK_SS",
  "SeriesDescription": "WMGNG2_MB4_LR_SBRef",
  "SeriesNumber": 8,
  "ShimSetting": [-4158, -29760, -2040, 602, -180, 387, -126, -94],
  "SliceThickness": 2.3,
  "SliceTiming": [0, 0.6575, 1.3175, 0.47, 1.1275, 0.28, 0.94, 0.0925, 0.7525, 1.41, 0.5625, 1.2225, 0.375, 1.035, 0.1875, 0.845, 0, 0.6575, 1.3175, 0.47, 1.1275, 0.28, 0.94, 0.0925, 0.7525, 1.41, 0.5625, 1.2225, 0.375, 1.035, 0.1875, 0.845, 0, 0.6575, 1.3175, 0.47, 1.1275, 0.28, 0.94, 0.0925, 0.7525, 1.41, 0.5625, 1.2225, 0.375, 1.035, 0.1875, 0.845, 0, 0.6575, 1.3175, 0.47, 1.1275, 0.28, 0.94, 0.0925, 0.7525, 1.41, 0.5625, 1.2225, 0.375, 1.035, 0.1875, 0.845],
  "SoftwareVersions": "syngo_MR_B17",
  "SpacingBetweenSlices": 2.3,
  "StationName": "MRC35422",
  "TaskName": "wmgng",
  "TotalReadoutTime": 0.0376057,
  "TxRefAmp": 375.581,
  "dcmmeta_affine": [
    [-2.327265977859497, 4.5265452497389447e-10, -0.005545142572373152, 131.23886108398438],
    [0.0012102561304345727, 2.272489309310913, -0.49610263109207153, -103.7783203125],
    [-0.005478816106915474, 0.5019867420196533, 2.245851993560791, -75.45122528076172],
    [0.0, 0.0, 0.0, 1.0]
],
  "dcmmeta_reorient_transform": [
    [0.0, -1.0, 0.0, 109.0],
    [1.0, 0.0, 0.0, 0.0],
    [0.0, 0.0, 1.0, 0.0],
    [0.0, 0.0, 0.0, 1.0]
],
  "dcmmeta_shape": [110, 110, 64, 357],
  "dcmmeta_slice_dim": 2,
  "dcmmeta_version": 0.6,
  "global": {
    "const": {
      "AcquisitionMatrix": [0, 110, 110, 0],
      "AngioFlag": "N",
      "BitsAllocated": 16,
      "BitsStored": 12,
      "Columns": 880,
      "EchoNumbers": 1,
      "EchoTime": 30.0,
      "EchoTrainLength": 1,
      "FlipAngle": 85.0,
      "HighBit": 11,
      "ImageOrientationPatient": [0.99999709370005, -0.0005200319439, -0.0023541788872, 1.945e-10, 0.97646025018802, -0.2156974265093],
      "ImagePositionPatient": [-1027.2362359458, -1018.3654144959, 174.63955792509],
      "ImageType": [
        "ORIGINAL",
        "PRIMARY",
        "FMRI",
        "NONE",
        "MB",
        "ND",
        "MOSAIC"
],
      "ImagedNucleus": "1H",
      "ImagingFrequency": 123.177371,
      "InPlanePhaseEncodingDirection": "ROW",
      "MRAcquisitionType": "2D",
      "MagneticFieldStrength": 3.0,
      "Manufacturer": "SIEMENS",
      "ManufacturerModelName": "TrioTim",
      "Modality": "MR",
      "NumberOfAverages": 1.0,
      "NumberOfPhaseEncodingSteps": 110,
      "PercentPhaseFieldOfView": 100.0,
      "PercentSampling": 100.0,
      "PerformedProcedureStepStartTime": "124714.781000",
      "PhotometricInterpretation": "MONOCHROME2",
      "PixelBandwidth": 1748.0,
      "PixelRepresentation": 0,
      "PixelSpacing": [2.3272726535797, 2.3272726535797],
      "ProtocolName": "WMGNG2_MB4_LR_SBRef",
      "ReferencedPerformedProcedureStepSequence": [
        {
          "ReferencedSOPClassUID": "1.2.840.10008.3.1.2.3.3",
          "ReferencedSOPInstanceUID": "1.3.12.2.1107.5.2.32.35422.30000020020800231482800000002"}
],
      "RepetitionTime": 1500.0,
      "Rows": 880,
      "SAR": 0.13312651318002,
      "SamplesPerPixel": 1,
      "ScanOptions": "FS",
      "ScanningSequence": "EP",
      "SequenceName": "epfid2d1_110",
      "SequenceVariant": [
        "SK",
        "SS"
],
      "SeriesDescription": "WMGNG2_MB4_LR_SBRef",
      "SeriesNumber": 8,
      "SeriesTime": "132239.453000",
      "SliceLocation": -51.606666301654,
      "SliceThickness": 2.2999999523163,
      "SmallestImagePixelValue": 0,
      "SoftwareVersions": "syngo MR B17",
      "SpacingBetweenSlices": 2.2999999827931,
      "SpecificCharacterSet": "ISO_IR 100",
      "StudyID": "1",
      "StudyTime": "124714.718000",
      "TransmitCoilName": "Body",
      "VariableFlipAngleFlag": "N",
      "WindowCenterWidthExplanation": "Algo1",
      "dBdt": 0.0},
    "slices": {}
  },
  "time": {
    "samples": {
      "AcquisitionNumber": [1, 2, 3, 4, 5, 6, 7, 8, 9, 10, 11, 12, 13, 14, 15, 16, 17, 18, 19, 20, 21, 22, 23, 24, 25, 26, 27, 28, 29, 30, 31, 32, 33, 34, 35, 36, 37, 38, 39, 40, 41, 42, 43, 44, 45, 46, 47, 48, 49, 50, 51, 52, 53, 54, 55, 56, 57, 58, 59, 60, 61, 62, 63, 64, 65, 66, 67, 68, 69, 70, 71, 72, 73, 74, 75, 76, 77, 78, 79, 80, 81, 82, 83, 84, 85, 86, 87, 88, 89, 90, 91, 92, 93, 94, 95, 96, 97, 98, 99, 100, 101, 102, 103, 104, 105, 106, 107, 108, 109, 110, 111, 112, 113, 114, 115, 116, 117, 118, 119, 120, 121, 122, 123, 124, 125, 126, 127, 128, 129, 130, 131, 132, 133, 134, 135, 136, 137, 138, 139, 140, 141, 142, 143, 144, 145, 146, 147, 148, 149, 150, 151, 152, 153, 154, 155, 156, 157, 158, 159, 160, 161, 162, 163, 164, 165, 166, 167, 168, 169, 170, 171, 172, 173, 174, 175, 176, 177, 178, 179, 180, 181, 182, 183, 184, 185, 186, 187, 188, 189, 190, 191, 192, 193, 194, 195, 196, 197, 198, 199, 200, 201, 202, 203, 204, 205, 206, 207, 208, 209, 210, 211, 212, 213, 214, 215, 216, 217, 218, 219, 220, 221, 222, 223, 224, 225, 226, 227, 228, 229, 230, 231, 232, 233, 234, 235, 236, 237, 238, 239, 240, 241, 242, 243, 244, 245, 246, 247, 248, 249, 250, 251, 252, 253, 254, 255, 256, 257, 258, 259, 260, 261, 262, 263, 264, 265, 266, 267, 268, 269, 270, 271, 272, 273, 274, 275, 276, 277, 278, 279, 280, 281, 282, 283, 284, 285, 286, 287, 288, 289, 290, 291, 292, 293, 294, 295, 296, 297, 298, 299, 300, 301, 302, 303, 304, 305, 306, 307, 308, 309, 310, 311, 312, 313, 314, 315, 316, 317, 318, 319, 320, 321, 322, 323, 324, 325, 326, 327, 328, 329, 330, 331, 332, 333, 334, 335, 336, 337, 338, 339, 340, 341, 342, 343, 344, 345, 346, 347, 348, 349, 350, 351, 352, 353, 354, 355, 356, 357],
      "AcquisitionTime": ["131733.425000", "131734.930000", "131736.435000", "131737.942500", "131739.447500", "131740.955000", "131742.460000", "131743.965000", "131745.472500", "131746.977500", "131748.485000", "131749.990000", "131751.495000", "131753.002500", "131754.507500", "131756.015000", "131757.520000", "131759.027500", "131800.532500", "131802.037500", "131803.545000", "131805.050000", "131806.557500", "131808.062500", "131809.567500", "131811.075000", "131812.580000", "131814.087500", "131815.592500", "131817.097500", "131818.605000", "131820.110000", "131821.617500", "131823.122500", "131824.630000", "131826.135000", "131827.640000", "131829.147500", "131830.652500", "131832.160000", "131833.665000", "131835.170000", "131836.677500", "131838.182500", "131839.690000", "131841.195000", "131842.700000", "131844.207500", "131845.712500", "131847.220000", "131848.725000", "131850.230000", "131851.737500", "131853.242500", "131854.750000", "131856.255000", "131857.762500", "131859.267500", "131900.772500", "131902.280000", "131903.785000", "131905.292500", "131906.797500", "131908.302500", "131909.810000", "131911.315000", "131912.822500", "131914.327500", "131915.832500", "131917.340000", "131918.845000", "131920.352500", "131921.857500", "131923.362500", "131924.870000", "131926.375000", "131927.882500", "131929.387500", "131930.895000", "131932.400000", "131933.905000", "131935.412500", "131936.917500", "131938.425000", "131939.930000", "131941.435000", "131942.942500", "131944.447500", "131945.955000", "131947.460000", "131948.965000", "131950.472500", "131951.977500", "131953.485000", "131954.990000", "131956.495000", "131958.002500", "131959.507500", "132001.015000", "132002.520000", "132004.027500", "132005.532500", "132007.037500", "132008.545000", "132010.050000", "132011.557500", "132013.062500", "132014.567500", "132016.075000", "132017.580000", "132019.087500", "132020.592500", "132022.097500", "132023.605000", "132025.110000", "132026.617500", "132028.122500", "132029.630000", "132031.135000", "132032.640000", "132034.147500", "132035.652500", "132037.160000", "132038.665000", "132040.170000", "132041.677500", "132043.182500", "132044.690000", "132046.195000", "132047.700000", "132049.207500", "132050.712500", "132052.220000", "132053.725000", "132055.230000", "132056.737500", "132058.242500", "132059.750000", "132101.255000", "132102.762500", "132104.267500", "132105.772500", "132107.280000", "132108.785000", "132110.292500", "132111.797500", "132113.302500", "132114.810000", "132116.315000", "132117.822500", "132119.327500", "132120.832500", "132122.340000", "132123.845000", "132125.352500", "132126.857500", "132128.362500", "132129.870000", "132131.375000", "132132.882500", "132134.387500", "132135.895000", "132137.400000", "132138.905000", "132140.412500", "132141.917500", "132143.425000", "132144.930000", "132146.435000", "132147.942500", "132149.447500", "132150.955000", "132152.460000", "132153.965000", "132155.472500", "132156.977500", "132158.485000", "132159.990000", "132201.495000", "132203.002500", "132204.507500", "132206.015000", "132207.520000", "132209.027500", "132210.532500", "132212.037500", "132213.545000", "132215.050000", "132216.557500", "132218.062500", "132219.567500", "132221.075000", "132222.580000", "132224.087500", "132225.592500", "132227.097500", "132228.605000", "132230.110000", "132231.617500", "132233.122500", "132234.630000", "132236.135000", "132237.640000", "132239.147500", "132240.652500", "132242.160000", "132243.665000", "132245.170000", "132246.677500", "132248.182500", "132249.690000", "132251.195000", "132252.700000", "132254.207500", "132255.712500", "132257.220000", "132258.725000", "132300.230000", "132301.737500", "132303.242500", "132304.750000", "132306.255000", "132307.762500", "132309.267500", "132310.772500", "132312.280000", "132313.785000", "132315.292500", "132316.797500", "132318.302500", "132319.810000", "132321.315000", "132322.822500", "132324.327500", "132325.832500", "132327.340000", "132328.845000", "132330.352500", "132331.857500", "132333.362500", "132334.870000", "132336.375000", "132337.882500", "132339.387500", "132340.895000", "132342.400000", "132343.905000", "132345.412500", "132346.917500", "132348.425000", "132349.930000", "132351.435000", "132352.942500", "132354.447500", "132355.955000", "132357.460000", "132358.965000", "132400.472500", "132401.977500", "132403.485000", "132404.990000", "132406.495000", "132408.002500", "132409.507500", "132411.015000", "132412.520000", "132414.027500", "132415.532500", "132417.037500", "132418.545000", "132420.050000", "132421.557500", "132423.062500", "132424.567500", "132426.075000", "132427.580000", "132429.087500", "132430.592500", "132432.097500", "132433.605000", "132435.110000", "132436.617500", "132438.122500", "132439.630000", "132441.135000", "132442.640000", "132444.147500", "132445.652500", "132447.160000", "132448.665000", "132450.170000", "132451.677500", "132453.182500", "132454.690000", "132456.195000", "132457.700000", "132459.207500", "132500.712500", "132502.220000", "132503.725000", "132505.230000", "132506.737500", "132508.242500", "132509.750000", "132511.255000", "132512.762500", "132514.267500", "132515.772500", "132517.280000", "132518.785000", "132520.292500", "132521.797500", "132523.302500", "132524.810000", "132526.315000", "132527.822500", "132529.327500", "132530.832500", "132532.340000", "132533.845000", "132535.352500", "132536.857500", "132538.362500", "132539.870000", "132541.375000", "132542.882500", "132544.387500", "132545.895000", "132547.400000", "132548.905000", "132550.412500", "132551.917500", "132553.425000", "132554.930000", "132556.435000", "132557.942500", "132559.447500", "132600.955000", "132602.460000", "132603.965000", "132605.472500", "132606.977500", "132608.485000", "132609.990000", "132611.495000", "132613.002500", "132614.507500", "132616.015000", "132617.520000", "132619.027500", "132620.532500", "132622.037500", "132623.545000", "132625.050000", "132626.557500", "132628.062500", "132629.567500"],
      "ContentTime": ["132239.453000", "132239.468000", "132239.468000", "132239.468000", "132339.453000", "132339.453000", "132339.453000", "132339.453000", "132339.468000", "132339.468000", "132339.468000", "132339.468000", "132339.468000", "132339.468000", "132339.468000", "132339.468000", "132339.468000", "132339.468000", "132339.484000", "132339.484000", "132339.484000", "132339.484000", "132339.484000", "132339.484000", "132339.484000", "132339.484000", "132339.500000", "132339.500000", "132339.500000", "132339.500000", "132439.453000", "132439.453000", "132439.453000", "132439.453000", "132439.453000", "132439.468000", "132439.468000", "132439.468000", "132439.468000", "132439.468000", "132439.468000", "132439.468000", "132439.468000", "132439.468000", "132439.484000", "132439.484000", "132439.484000", "132439.484000", "132439.484000", "132439.484000", "132439.484000", "132439.484000", "132439.484000", "132439.500000", "132439.500000", "132439.500000", "132439.500000", "132539.453000", "132539.453000", "132539.453000", "132539.453000", "132539.468000", "132539.468000", "132539.468000", "132539.468000", "132539.468000", "132539.468000", "132539.468000", "132539.484000", "132539.484000", "132539.484000", "132539.484000", "132539.484000", "132539.484000", "132539.484000", "132539.484000", "132539.500000", "132539.500000", "132539.500000", "132539.500000", "132539.500000", "132539.515000", "132539.515000", "132639.453000", "132639.453000", "132639.453000", "132639.453000", "132639.468000", "132639.468000", "132639.468000", "132639.468000", "132639.468000", "132639.468000", "132639.484000", "132639.484000", "132639.484000", "132639.484000", "132639.484000", "132639.484000", "132639.500000", "132639.500000", "132639.500000", "132639.500000", "132639.500000", "132639.500000", "132639.500000", "132639.500000", "132639.500000", "132639.515000", "132739.453000", "132739.453000", "132739.453000", "132739.453000", "132739.468000", "132739.468000", "132739.468000", "132739.468000", "132739.468000", "132739.468000", "132739.468000", "132739.468000", "132739.468000", "132739.484000", "132739.484000", "132739.484000", "132739.484000", "132739.484000", "132739.484000", "132739.484000", "132739.484000", "132739.484000", "132739.484000", "132739.500000", "132739.500000", "132819.453000", "132819.453000", "132819.453000", "132819.453000", "132819.468000", "132819.468000", "132819.468000", "132819.468000", "132819.468000", "132819.468000", "132819.468000", "132819.468000", "132819.484000", "132819.484000", "132819.484000", "132819.484000", "132819.484000", "132819.484000", "132919.453000", "132919.453000", "132919.453000", "132919.453000", "132919.468000", "132919.468000", "132919.468000", "132919.468000", "132919.468000", "132919.468000", "132919.468000", "132919.500000", "132919.500000", "132919.500000", "132919.500000", "132919.500000", "132919.500000", "132919.515000", "132919.515000", "132919.515000", "132919.515000", "132919.515000", "132919.515000", "132919.515000", "132919.515000", "132919.515000", "133019.453000", "133019.453000", "133019.453000", "133019.453000", "133019.468000", "133019.468000", "133019.468000", "133019.468000", "133019.468000", "133019.468000", "133019.468000", "133019.468000", "133019.468000", "133019.484000", "133019.484000", "133019.484000", "133019.484000", "133019.484000", "133019.500000", "133019.500000", "133019.500000", "133019.500000", "133019.500000", "133019.500000", "133019.500000", "133019.500000", "133119.453000", "133119.453000", "133119.453000", "133119.453000", "133119.468000", "133119.468000", "133119.468000", "133119.468000", "133119.468000", "133119.468000", "133119.468000", "133119.468000", "133119.468000", "133119.484000", "133119.484000", "133119.484000", "133119.484000", "133119.484000", "133119.500000", "133119.500000", "133119.500000", "133119.500000", "133119.500000", "133119.500000", "133119.500000", "133119.515000", "133219.453000", "133219.453000", "133219.453000", "133219.453000", "133219.468000", "133219.468000", "133219.468000", "133219.468000", "133219.468000", "133219.468000", "133219.484000", "133219.484000", "133219.484000", "133219.484000", "133219.484000", "133219.484000", "133219.500000", "133219.500000", "133219.500000", "133219.500000", "133219.500000", "133219.500000", "133219.500000", "133219.500000", "133219.500000", "133219.515000", "133319.453000", "133319.453000", "133319.453000", "133319.453000", "133319.468000", "133319.468000", "133319.468000", "133319.468000", "133319.468000", "133319.468000", "133319.468000", "133319.468000", "133319.468000", "133319.484000", "133319.484000", "133319.484000", "133319.484000", "133319.484000", "133319.484000", "133319.484000", "133319.484000", "133319.484000", "133319.500000", "133319.500000", "133319.500000", "133319.500000", "133419.453000", "133419.453000", "133419.468000", "133419.468000", "133419.468000", "133419.468000", "133419.468000", "133419.468000", "133419.468000", "133419.468000", "133419.468000", "133419.484000", "133419.484000", "133419.484000", "133419.484000", "133419.484000", "133419.484000", "133419.484000", "133419.484000", "133419.500000", "133419.500000", "133419.500000", "133419.500000", "133419.500000", "133419.515000", "133419.515000", "133519.453000", "133519.453000", "133519.453000", "133519.453000", "133519.468000", "133519.468000", "133519.468000", "133519.468000", "133519.468000", "133519.468000", "133519.468000", "133519.468000", "133519.468000", "133519.484000", "133519.484000", "133519.484000", "133519.484000", "133519.484000", "133519.484000", "133519.484000", "133519.484000", "133519.484000", "133519.500000", "133519.500000", "133519.500000", "133612.609000", "133612.609000", "133612.609000", "133612.609000", "133612.625000", "133612.625000", "133612.625000", "133612.640000", "133612.640000", "133612.640000", "133612.640000", "133612.656000", "133612.656000", "133612.656000", "133612.671000", "133612.671000", "133612.671000", "133612.671000", "133612.671000", "133612.671000", "133612.671000", "133612.671000", "133612.671000", "133612.671000"],
      "DataSetTrailingPadding": [
        "\u0000\u0000\u0000\u0000\u0000\u0000\u0000\u0000\u0000\u0000\u0000\u0000\u0000\u0000\u0000\u0000\u0000\u0000\u0000\u0000\u0000\u0000\u0000\u0000\u0000\u0000\u0000\u0000\u0000\u0000\u0000\u0000\u0000\u0000\u0000\u0000\u0000\u0000\u0000\u0000\u0000\u0000\u0000\u0000\u0000\u0000\u0000\u0000\u0000\u0000\u0000\u0000",
        "\u0000\u0000\u0000\u0000\u0000\u0000\u0000\u0000\u0000\u0000\u0000\u0000\u0000\u0000\u0000\u0000\u0000\u0000\u0000\u0000\u0000\u0000\u0000\u0000\u0000\u0000\u0000\u0000\u0000\u0000\u0000\u0000\u0000\u0000\u0000\u0000\u0000\u0000\u0000\u0000\u0000\u0000\u0000\u0000\u0000\u0000\u0000\u0000\u0000\u0000",
        "\u0000\u0000\u0000\u0000\u0000\u0000\u0000\u0000\u0000\u0000\u0000\u0000\u0000\u0000\u0000\u0000\u0000\u0000\u0000\u0000\u0000\u0000\u0000\u0000\u0000\u0000\u0000\u0000\u0000\u0000\u0000\u0000\u0000\u0000\u0000\u0000\u0000\u0000\u0000\u0000\u0000\u0000\u0000\u0000\u0000\u0000\u0000\u0000\u0000\u0000",
        "\u0000\u0000\u0000\u0000\u0000\u0000\u0000\u0000\u0000\u0000\u0000\u0000\u0000\u0000\u0000\u0000\u0000\u0000\u0000\u0000\u0000\u0000\u0000\u0000\u0000\u0000\u0000\u0000\u0000\u0000\u0000\u0000\u0000\u0000\u0000\u0000\u0000\u0000\u0000\u0000\u0000\u0000\u0000\u0000\u0000\u0000\u0000\u0000\u0000\u0000",
        "\u0000\u0000\u0000\u0000\u0000\u0000\u0000\u0000\u0000\u0000\u0000\u0000\u0000\u0000\u0000\u0000\u0000\u0000\u0000\u0000\u0000\u0000\u0000\u0000\u0000\u0000\u0000\u0000\u0000\u0000\u0000\u0000\u0000\u0000\u0000\u0000\u0000\u0000\u0000\u0000\u0000\u0000\u0000\u0000\u0000\u0000\u0000\u0000\u0000\u0000\u0000\u0000",
        "\u0000\u0000\u0000\u0000\u0000\u0000\u0000\u0000\u0000\u0000\u0000\u0000\u0000\u0000\u0000\u0000\u0000\u0000\u0000\u0000\u0000\u0000\u0000\u0000\u0000\u0000\u0000\u0000\u0000\u0000\u0000\u0000\u0000\u0000\u0000\u0000\u0000\u0000\u0000\u0000\u0000\u0000\u0000\u0000\u0000\u0000\u0000\u0000\u0000\u0000\u0000\u0000",
        "\u0000\u0000\u0000\u0000\u0000\u0000\u0000\u0000\u0000\u0000\u0000\u0000\u0000\u0000\u0000\u0000\u0000\u0000\u0000\u0000\u0000\u0000\u0000\u0000\u0000\u0000\u0000\u0000\u0000\u0000\u0000\u0000\u0000\u0000\u0000\u0000\u0000\u0000\u0000\u0000\u0000\u0000\u0000\u0000\u0000\u0000\u0000\u0000\u0000\u0000",
        "\u0000\u0000\u0000\u0000\u0000\u0000\u0000\u0000\u0000\u0000\u0000\u0000\u0000\u0000\u0000\u0000\u0000\u0000\u0000\u0000\u0000\u0000\u0000\u0000\u0000\u0000\u0000\u0000\u0000\u0000\u0000\u0000\u0000\u0000\u0000\u0000\u0000\u0000\u0000\u0000\u0000\u0000\u0000\u0000\u0000\u0000\u0000\u0000\u0000\u0000",
        "\u0000\u0000\u0000\u0000\u0000\u0000\u0000\u0000\u0000\u0000\u0000\u0000\u0000\u0000\u0000\u0000\u0000\u0000\u0000\u0000\u0000\u0000\u0000\u0000\u0000\u0000\u0000\u0000\u0000\u0000\u0000\u0000\u0000\u0000\u0000\u0000\u0000\u0000\u0000\u0000\u0000\u0000\u0000\u0000\u0000\u0000\u0000\u0000\u0000\u0000",
        "\u0000\u0000\u0000\u0000\u0000\u0000\u0000\u0000\u0000\u0000\u0000\u0000\u0000\u0000\u0000\u0000\u0000\u0000\u0000\u0000\u0000\u0000\u0000\u0000\u0000\u0000\u0000\u0000\u0000\u0000\u0000\u0000\u0000\u0000\u0000\u0000\u0000\u0000\u0000\u0000\u0000\u0000\u0000\u0000\u0000\u0000\u0000\u0000",
        "\u0000\u0000\u0000\u0000\u0000\u0000\u0000\u0000\u0000\u0000\u0000\u0000\u0000\u0000\u0000\u0000\u0000\u0000\u0000\u0000\u0000\u0000\u0000\u0000\u0000\u0000\u0000\u0000\u0000\u0000\u0000\u0000\u0000\u0000\u0000\u0000\u0000\u0000\u0000\u0000\u0000\u0000\u0000\u0000\u0000\u0000\u0000\u0000",
        "\u0000\u0000\u0000\u0000\u0000\u0000\u0000\u0000\u0000\u0000\u0000\u0000\u0000\u0000\u0000\u0000\u0000\u0000\u0000\u0000\u0000\u0000\u0000\u0000\u0000\u0000\u0000\u0000\u0000\u0000\u0000\u0000\u0000\u0000\u0000\u0000\u0000\u0000\u0000\u0000\u0000\u0000\u0000\u0000\u0000\u0000",
        "\u0000\u0000\u0000\u0000\u0000\u0000\u0000\u0000\u0000\u0000\u0000\u0000\u0000\u0000\u0000\u0000\u0000\u0000\u0000\u0000\u0000\u0000\u0000\u0000\u0000\u0000\u0000\u0000\u0000\u0000\u0000\u0000\u0000\u0000\u0000\u0000\u0000\u0000\u0000\u0000\u0000\u0000\u0000\u0000\u0000\u0000",
        "\u0000\u0000\u0000\u0000\u0000\u0000\u0000\u0000\u0000\u0000\u0000\u0000\u0000\u0000\u0000\u0000\u0000\u0000\u0000\u0000\u0000\u0000\u0000\u0000\u0000\u0000\u0000\u0000\u0000\u0000\u0000\u0000\u0000\u0000\u0000\u0000\u0000\u0000\u0000\u0000\u0000\u0000\u0000\u0000\u0000\u0000\u0000\u0000",
        "\u0000\u0000\u0000\u0000\u0000\u0000\u0000\u0000\u0000\u0000\u0000\u0000\u0000\u0000\u0000\u0000\u0000\u0000\u0000\u0000\u0000\u0000\u0000\u0000\u0000\u0000\u0000\u0000\u0000\u0000\u0000\u0000\u0000\u0000\u0000\u0000\u0000\u0000\u0000\u0000\u0000\u0000\u0000\u0000\u0000\u0000\u0000\u0000",
        "\u0000\u0000\u0000\u0000\u0000\u0000\u0000\u0000\u0000\u0000\u0000\u0000\u0000\u0000\u0000\u0000\u0000\u0000\u0000\u0000\u0000\u0000\u0000\u0000\u0000\u0000\u0000\u0000\u0000\u0000\u0000\u0000\u0000\u0000\u0000\u0000\u0000\u0000\u0000\u0000\u0000\u0000\u0000\u0000\u0000\u0000\u0000\u0000",
        "\u0000\u0000\u0000\u0000\u0000\u0000\u0000\u0000\u0000\u0000\u0000\u0000\u0000\u0000\u0000\u0000\u0000\u0000\u0000\u0000\u0000\u0000\u0000\u0000\u0000\u0000\u0000\u0000\u0000\u0000\u0000\u0000\u0000\u0000\u0000\u0000\u0000\u0000\u0000\u0000\u0000\u0000\u0000\u0000\u0000\u0000",
        "\u0000\u0000\u0000\u0000\u0000\u0000\u0000\u0000\u0000\u0000\u0000\u0000\u0000\u0000\u0000\u0000\u0000\u0000\u0000\u0000\u0000\u0000\u0000\u0000\u0000\u0000\u0000\u0000\u0000\u0000\u0000\u0000\u0000\u0000\u0000\u0000\u0000\u0000\u0000\u0000\u0000\u0000\u0000\u0000\u0000\u0000",
        "\u0000\u0000\u0000\u0000\u0000\u0000\u0000\u0000\u0000\u0000\u0000\u0000\u0000\u0000\u0000\u0000\u0000\u0000\u0000\u0000\u0000\u0000\u0000\u0000\u0000\u0000\u0000\u0000\u0000\u0000\u0000\u0000\u0000\u0000\u0000\u0000\u0000\u0000\u0000\u0000\u0000\u0000\u0000\u0000\u0000\u0000\u0000\u0000",
        "\u0000\u0000\u0000\u0000\u0000\u0000\u0000\u0000\u0000\u0000\u0000\u0000\u0000\u0000\u0000\u0000\u0000\u0000\u0000\u0000\u0000\u0000\u0000\u0000\u0000\u0000\u0000\u0000\u0000\u0000\u0000\u0000\u0000\u0000\u0000\u0000\u0000\u0000\u0000\u0000\u0000\u0000\u0000\u0000\u0000\u0000\u0000\u0000",
        "\u0000\u0000\u0000\u0000\u0000\u0000\u0000\u0000\u0000\u0000\u0000\u0000\u0000\u0000\u0000\u0000\u0000\u0000\u0000\u0000\u0000\u0000\u0000\u0000\u0000\u0000\u0000\u0000\u0000\u0000\u0000\u0000\u0000\u0000\u0000\u0000\u0000\u0000\u0000\u0000\u0000\u0000\u0000\u0000\u0000\u0000\u0000\u0000",
        "\u0000\u0000\u0000\u0000\u0000\u0000\u0000\u0000\u0000\u0000\u0000\u0000\u0000\u0000\u0000\u0000\u0000\u0000\u0000\u0000\u0000\u0000\u0000\u0000\u0000\u0000\u0000\u0000\u0000\u0000\u0000\u0000\u0000\u0000\u0000\u0000\u0000\u0000\u0000\u0000\u0000\u0000\u0000\u0000\u0000\u0000",
        "\u0000\u0000\u0000\u0000\u0000\u0000\u0000\u0000\u0000\u0000\u0000\u0000\u0000\u0000\u0000\u0000\u0000\u0000\u0000\u0000\u0000\u0000\u0000\u0000\u0000\u0000\u0000\u0000\u0000\u0000\u0000\u0000\u0000\u0000\u0000\u0000\u0000\u0000\u0000\u0000\u0000\u0000\u0000\u0000\u0000\u0000",
        "\u0000\u0000\u0000\u0000\u0000\u0000\u0000\u0000\u0000\u0000\u0000\u0000\u0000\u0000\u0000\u0000\u0000\u0000\u0000\u0000\u0000\u0000\u0000\u0000\u0000\u0000\u0000\u0000\u0000\u0000\u0000\u0000\u0000\u0000\u0000\u0000\u0000\u0000\u0000\u0000\u0000\u0000\u0000\u0000\u0000\u0000\u0000\u0000",
        "\u0000\u0000\u0000\u0000\u0000\u0000\u0000\u0000\u0000\u0000\u0000\u0000\u0000\u0000\u0000\u0000\u0000\u0000\u0000\u0000\u0000\u0000\u0000\u0000\u0000\u0000\u0000\u0000\u0000\u0000\u0000\u0000\u0000\u0000\u0000\u0000\u0000\u0000\u0000\u0000\u0000\u0000\u0000\u0000\u0000\u0000\u0000\u0000",
        "\u0000\u0000\u0000\u0000\u0000\u0000\u0000\u0000\u0000\u0000\u0000\u0000\u0000\u0000\u0000\u0000\u0000\u0000\u0000\u0000\u0000\u0000\u0000\u0000\u0000\u0000\u0000\u0000\u0000\u0000\u0000\u0000\u0000\u0000\u0000\u0000\u0000\u0000\u0000\u0000\u0000\u0000\u0000\u0000\u0000\u0000\u0000\u0000",
        "\u0000\u0000\u0000\u0000\u0000\u0000\u0000\u0000\u0000\u0000\u0000\u0000\u0000\u0000\u0000\u0000\u0000\u0000\u0000\u0000\u0000\u0000\u0000\u0000\u0000\u0000\u0000\u0000\u0000\u0000\u0000\u0000\u0000\u0000\u0000\u0000\u0000\u0000\u0000\u0000\u0000\u0000\u0000\u0000\u0000\u0000",
        "\u0000\u0000\u0000\u0000\u0000\u0000\u0000\u0000\u0000\u0000\u0000\u0000\u0000\u0000\u0000\u0000\u0000\u0000\u0000\u0000\u0000\u0000\u0000\u0000\u0000\u0000\u0000\u0000\u0000\u0000\u0000\u0000\u0000\u0000\u0000\u0000\u0000\u0000\u0000\u0000\u0000\u0000\u0000\u0000\u0000\u0000",
        "\u0000\u0000\u0000\u0000\u0000\u0000\u0000\u0000\u0000\u0000\u0000\u0000\u0000\u0000\u0000\u0000\u0000\u0000\u0000\u0000\u0000\u0000\u0000\u0000\u0000\u0000\u0000\u0000\u0000\u0000\u0000\u0000\u0000\u0000\u0000\u0000\u0000\u0000\u0000\u0000\u0000\u0000\u0000\u0000\u0000\u0000\u0000\u0000",
        "\u0000\u0000\u0000\u0000\u0000\u0000\u0000\u0000\u0000\u0000\u0000\u0000\u0000\u0000\u0000\u0000\u0000\u0000\u0000\u0000\u0000\u0000\u0000\u0000\u0000\u0000\u0000\u0000\u0000\u0000\u0000\u0000\u0000\u0000\u0000\u0000\u0000\u0000\u0000\u0000\u0000\u0000\u0000\u0000\u0000\u0000\u0000\u0000",
        "\u0000\u0000\u0000\u0000\u0000\u0000\u0000\u0000\u0000\u0000\u0000\u0000\u0000\u0000\u0000\u0000\u0000\u0000\u0000\u0000\u0000\u0000\u0000\u0000\u0000\u0000\u0000\u0000\u0000\u0000\u0000\u0000\u0000\u0000\u0000\u0000\u0000\u0000\u0000\u0000\u0000\u0000\u0000\u0000\u0000\u0000\u0000\u0000",
        "\u0000\u0000\u0000\u0000\u0000\u0000\u0000\u0000\u0000\u0000\u0000\u0000\u0000\u0000\u0000\u0000\u0000\u0000\u0000\u0000\u0000\u0000\u0000\u0000\u0000\u0000\u0000\u0000\u0000\u0000\u0000\u0000\u0000\u0000\u0000\u0000\u0000\u0000\u0000\u0000\u0000\u0000\u0000\u0000\u0000\u0000",
        "\u0000\u0000\u0000\u0000\u0000\u0000\u0000\u0000\u0000\u0000\u0000\u0000\u0000\u0000\u0000\u0000\u0000\u0000\u0000\u0000\u0000\u0000\u0000\u0000\u0000\u0000\u0000\u0000\u0000\u0000\u0000\u0000\u0000\u0000\u0000\u0000\u0000\u0000\u0000\u0000\u0000\u0000\u0000\u0000\u0000\u0000",
        "\u0000\u0000\u0000\u0000\u0000\u0000\u0000\u0000\u0000\u0000\u0000\u0000\u0000\u0000\u0000\u0000\u0000\u0000\u0000\u0000\u0000\u0000\u0000\u0000\u0000\u0000\u0000\u0000\u0000\u0000\u0000\u0000\u0000\u0000\u0000\u0000\u0000\u0000\u0000\u0000\u0000\u0000\u0000\u0000\u0000\u0000\u0000\u0000",
