{
  "AcquisitionMatrixPE": 110,
  "AcquisitionNumber": 1,
  "AcquisitionTime": "16:27:12.037500",
  "BandwidthPerPixelPhaseEncode": 26.35,
  "BaseResolution": 110,
  "CoilString": "C:HEA;HEP",
  "ConversionSoftware": "dcm2niix",
  "ConversionSoftwareVersion": "v1.0.20190410  GCC6.3.0",
  "DerivedVendorReportedEchoSpacing": 0.000690012,
  "DeviceSerialNumber": "35422",
  "DwellTime": 2.6e-06,
  "EchoTime": 0.03,
  "EffectiveEchoSpacing": 0.000345006,
  "FlipAngle": 85,
  "ImageComments": "Unaliased_MB4_PE4_LB",
  "ImageOrientationPatientDICOM": [0.999997, -0.000246003, -0.00239835, 2.0244e-10, 0.994781, -0.102036],
  "ImageType": [
    "ORIGINAL",
    "PRIMARY",
    "FMRI",
    "NONE",
    "MB",
    "ND",
    "MOSAIC"
],
  "ImagingFrequency": 123.178,
  "InPlanePhaseEncodingDirectionDICOM": "ROW",
  "InstitutionAddress": "kwanakro_599_C4F276_Seoul_KR_ZIP",
  "InstitutionName": "SNUBIC",
  "InstitutionalDepartmentName": "Department",
  "MRAcquisitionType": "2D",
  "MagneticFieldStrength": 3,
  "Manufacturer": "Siemens",
  "ManufacturersModelName": "TrioTim",
  "Modality": "MR",
  "MultibandAccelerationFactor": 4,
  "ParallelReductionFactorInPlane": 2,
  "PartialFourier": 1,
  "PatientPosition": "HFS",
  "PercentPhaseFOV": 100,
  "PhaseEncodingDirection": "i-",
  "PhaseEncodingSteps": 110,
  "PhaseResolution": 1,
  "PixelBandwidth": 1748,
  "ProcedureStepDescription": "SNU_SAVED",
  "ProtocolName": "WMGNG1_MB4_LR_SBRef",
  "PulseSequenceDetails": "%CustomerSeq%_cmrr_mbep2d_bold",
  "ReceiveCoilName": "32Ch_Head",
  "ReconMatrixPE": 110,
  "RefLinesPE": 32,
  "RepetitionTime": 1.5,
  "SAR": 0.136679,
  "ScanOptions": "FS",
  "ScanningSequence": "EP",
  "SequenceName": "epfid2d1_110",
  "SequenceVariant": "SK_SS",
  "SeriesDescription": "WMGNG1_MB4_LR_SBRef",
  "SeriesNumber": 13,
  "ShimSetting": [-4142, -29804, -2013, 891, 27, 276, -229, 32],
  "SliceThickness": 2.3,
  "SliceTiming": [0, 0.6575, 1.315, 0.47, 1.1275, 0.28, 0.94, 0.0925, 0.7525, 1.41, 0.5625, 1.2225, 0.375, 1.035, 0.1875, 0.845, 0, 0.6575, 1.315, 0.47, 1.1275, 0.28, 0.94, 0.0925, 0.7525, 1.41, 0.5625, 1.2225, 0.375, 1.035, 0.1875, 0.845, 0, 0.6575, 1.315, 0.47, 1.1275, 0.28, 0.94, 0.0925, 0.7525, 1.41, 0.5625, 1.2225, 0.375, 1.035, 0.1875, 0.845, 0, 0.6575, 1.315, 0.47, 1.1275, 0.28, 0.94, 0.0925, 0.7525, 1.41, 0.5625, 1.2225, 0.375, 1.035, 0.1875, 0.845],
  "SoftwareVersions": "syngo_MR_B17",
  "SpacingBetweenSlices": 2.3,
  "StationName": "MRC35422",
  "TaskName": "wmgng",
  "TotalReadoutTime": 0.0376057,
  "TxRefAmp": 314.389,
  "dcmmeta_affine": [
    [-2.327265977859497, 4.711332990403605e-10, -0.005545142572373152, 134.00489807128906],
    [0.000572516000829637, 2.3151259422302246, -0.23468302190303802, -113.15313720703125],
    [-0.00558161037042737, 0.23746651411056519, 2.2879889011383057, -48.73089599609375],
    [0.0, 0.0, 0.0, 1.0]
],
  "dcmmeta_reorient_transform": [
    [0.0, -1.0, 0.0, 109.0],
    [1.0, 0.0, 0.0, 0.0],
    [0.0, 0.0, 1.0, 0.0],
    [0.0, 0.0, 0.0, 1.0]
],
  "dcmmeta_shape": [110, 110, 64, 357],
  "dcmmeta_slice_dim": 2,
  "dcmmeta_version": 0.6,
  "global": {
    "const": {
      "AcquisitionMatrix": [0, 110, 110, 0],
      "AngioFlag": "N",
      "BitsAllocated": 16,
      "BitsStored": 12,
      "Columns": 880,
      "EchoNumbers": 1,
      "EchoTime": 30.0,
      "EchoTrainLength": 1,
      "FlipAngle": 85.0,
      "HighBit": 11,
      "ImageOrientationPatient": [0.99999709369996, -0.0002460029804, -0.0023983482152, 2.024401e-10, 0.99478066630329, -0.1020363952185],
      "ImagePositionPatient": [-1030.0022688881, -1030.2986112722, 70.726482727748],
      "ImageType": [
        "ORIGINAL",
        "PRIMARY",
        "FMRI",
        "NONE",
        "MB",
        "ND",
        "MOSAIC"
],
      "ImagedNucleus": "1H",
      "ImagingFrequency": 123.177567,
      "InPlanePhaseEncodingDirection": "ROW",
      "MRAcquisitionType": "2D",
      "MagneticFieldStrength": 3.0,
      "Manufacturer": "SIEMENS",
      "ManufacturerModelName": "TrioTim",
      "Modality": "MR",
      "NumberOfAverages": 1.0,
      "NumberOfPhaseEncodingSteps": 110,
      "PercentPhaseFieldOfView": 100.0,
      "PercentSampling": 100.0,
      "PerformedProcedureStepStartTime": "154659.031000",
      "PhotometricInterpretation": "MONOCHROME2",
      "PixelBandwidth": 1748.0,
      "PixelRepresentation": 0,
      "PixelSpacing": [2.3272726535797, 2.3272726535797],
      "ProtocolName": "WMGNG1_MB4_LR_SBRef",
      "ReferencedPerformedProcedureStepSequence": [
        {
          "ReferencedSOPClassUID": "1.2.840.10008.3.1.2.3.3",
          "ReferencedSOPInstanceUID": "1.3.12.2.1107.5.2.32.35422.30000020011402064696800000005"}
],
      "RepetitionTime": 1500.0,
      "Rows": 880,
      "SAR": 0.13667861641129,
      "SamplesPerPixel": 1,
      "ScanOptions": "FS",
      "ScanningSequence": "EP",
      "SequenceName": "epfid2d1_110",
      "SequenceVariant": [
        "SK",
        "SS"
],
      "SeriesDescription": "WMGNG1_MB4_LR_SBRef",
      "SeriesNumber": 13,
      "SeriesTime": "163438.171000",
      "SliceLocation": -37.253782739126,
      "SliceThickness": 2.2999999523163,
      "SmallestImagePixelValue": 0,
      "SoftwareVersions": "syngo MR B17",
      "SpacingBetweenSlices": 2.2999999310312,
      "SpecificCharacterSet": "ISO_IR 100",
      "StudyID": "1",
      "StudyTime": "154658.968000",
      "TransmitCoilName": "Body",
      "VariableFlipAngleFlag": "N",
      "WindowCenterWidthExplanation": "Algo1",
      "dBdt": 0.0},
    "slices": {}
  },
  "time": {
    "samples": {
      "AcquisitionNumber": [1, 2, 3, 4, 5, 6, 7, 8, 9, 10, 11, 12, 13, 14, 15, 16, 17, 18, 19, 20, 21, 22, 23, 24, 25, 26, 27, 28, 29, 30, 31, 32, 33, 34, 35, 36, 37, 38, 39, 40, 41, 42, 43, 44, 45, 46, 47, 48, 49, 50, 51, 52, 53, 54, 55, 56, 57, 58, 59, 60, 61, 62, 63, 64, 65, 66, 67, 68, 69, 70, 71, 72, 73, 74, 75, 76, 77, 78, 79, 80, 81, 82, 83, 84, 85, 86, 87, 88, 89, 90, 91, 92, 93, 94, 95, 96, 97, 98, 99, 100, 101, 102, 103, 104, 105, 106, 107, 108, 109, 110, 111, 112, 113, 114, 115, 116, 117, 118, 119, 120, 121, 122, 123, 124, 125, 126, 127, 128, 129, 130, 131, 132, 133, 134, 135, 136, 137, 138, 139, 140, 141, 142, 143, 144, 145, 146, 147, 148, 149, 150, 151, 152, 153, 154, 155, 156, 157, 158, 159, 160, 161, 162, 163, 164, 165, 166, 167, 168, 169, 170, 171, 172, 173, 174, 175, 176, 177, 178, 179, 180, 181, 182, 183, 184, 185, 186, 187, 188, 189, 190, 191, 192, 193, 194, 195, 196, 197, 198, 199, 200, 201, 202, 203, 204, 205, 206, 207, 208, 209, 210, 211, 212, 213, 214, 215, 216, 217, 218, 219, 220, 221, 222, 223, 224, 225, 226, 227, 228, 229, 230, 231, 232, 233, 234, 235, 236, 237, 238, 239, 240, 241, 242, 243, 244, 245, 246, 247, 248, 249, 250, 251, 252, 253, 254, 255, 256, 257, 258, 259, 260, 261, 262, 263, 264, 265, 266, 267, 268, 269, 270, 271, 272, 273, 274, 275, 276, 277, 278, 279, 280, 281, 282, 283, 284, 285, 286, 287, 288, 289, 290, 291, 292, 293, 294, 295, 296, 297, 298, 299, 300, 301, 302, 303, 304, 305, 306, 307, 308, 309, 310, 311, 312, 313, 314, 315, 316, 317, 318, 319, 320, 321, 322, 323, 324, 325, 326, 327, 328, 329, 330, 331, 332, 333, 334, 335, 336, 337, 338, 339, 340, 341, 342, 343, 344, 345, 346, 347, 348, 349, 350, 351, 352, 353, 354, 355, 356, 357],
      "AcquisitionTime": ["162712.037500", "162713.542500", "162715.047500", "162716.555000", "162718.060000", "162719.567500", "162721.072500", "162722.577500", "162724.085000", "162725.590000", "162727.097500", "162728.602500", "162730.107500", "162731.615000", "162733.120000", "162734.627500", "162736.132500", "162737.637500", "162739.145000", "162740.650000", "162742.157500", "162743.662500", "162745.170000", "162746.675000", "162748.180000", "162749.687500", "162751.192500", "162752.700000", "162754.205000", "162755.710000", "162757.217500", "162758.722500", "162800.230000", "162801.735000", "162803.240000", "162804.747500", "162806.252500", "162807.760000", "162809.265000", "162810.772500", "162812.277500", "162813.782500", "162815.290000", "162816.795000", "162818.302500", "162819.807500", "162821.312500", "162822.820000", "162824.325000", "162825.832500", "162827.337500", "162828.842500", "162830.350000", "162831.855000", "162833.362500", "162834.867500", "162836.372500", "162837.880000", "162839.385000", "162840.892500", "162842.397500", "162843.905000", "162845.410000", "162846.915000", "162848.422500", "162849.927500", "162851.435000", "162852.940000", "162854.445000", "162855.952500", "162857.457500", "162858.965000", "162900.470000", "162901.975000", "162903.482500", "162904.987500", "162906.495000", "162908.000000", "162909.505000", "162911.012500", "162912.517500", "162914.025000", "162915.530000", "162917.037500", "162918.542500", "162920.047500", "162921.555000", "162923.060000", "162924.567500", "162926.072500", "162927.577500", "162929.085000", "162930.590000", "162932.097500", "162933.602500", "162935.107500", "162936.615000", "162938.120000", "162939.627500", "162941.132500", "162942.637500", "162944.145000", "162945.650000", "162947.157500", "162948.662500", "162950.170000", "162951.675000", "162953.180000", "162954.687500", "162956.192500", "162957.700000", "162959.205000", "163000.710000", "163002.217500", "163003.722500", "163005.230000", "163006.735000", "163008.240000", "163009.747500", "163011.252500", "163012.760000", "163014.265000", "163015.772500", "163017.277500", "163018.782500", "163020.290000", "163021.795000", "163023.302500", "163024.807500", "163026.312500", "163027.820000", "163029.325000", "163030.832500", "163032.337500", "163033.842500", "163035.350000", "163036.855000", "163038.362500", "163039.867500", "163041.372500", "163042.880000", "163044.385000", "163045.892500", "163047.397500", "163048.905000", "163050.410000", "163051.915000", "163053.422500", "163054.927500", "163056.435000", "163057.940000", "163059.445000", "163100.952500", "163102.457500", "163103.965000", "163105.470000", "163106.975000", "163108.482500", "163109.987500", "163111.495000", "163113.000000", "163114.505000", "163116.012500", "163117.517500", "163119.025000", "163120.530000", "163122.037500", "163123.542500", "163125.047500", "163126.555000", "163128.060000", "163129.567500", "163131.072500", "163132.577500", "163134.085000", "163135.590000", "163137.097500", "163138.602500", "163140.107500", "163141.615000", "163143.120000", "163144.627500", "163146.132500", "163147.637500", "163149.145000", "163150.650000", "163152.157500", "163153.662500", "163155.170000", "163156.675000", "163158.180000", "163159.687500", "163201.192500", "163202.700000", "163204.205000", "163205.710000", "163207.217500", "163208.722500", "163210.230000", "163211.735000", "163213.240000", "163214.747500", "163216.252500", "163217.760000", "163219.265000", "163220.772500", "163222.277500", "163223.782500", "163225.290000", "163226.795000", "163228.302500", "163229.807500", "163231.312500", "163232.820000", "163234.325000", "163235.832500", "163237.337500", "163238.842500", "163240.350000", "163241.855000", "163243.362500", "163244.867500", "163246.372500", "163247.880000", "163249.385000", "163250.892500", "163252.397500", "163253.905000", "163255.410000", "163256.915000", "163258.422500", "163259.927500", "163301.435000", "163302.940000", "163304.445000", "163305.952500", "163307.457500", "163308.965000", "163310.470000", "163311.975000", "163313.482500", "163314.987500", "163316.495000", "163318.000000", "163319.505000", "163321.012500", "163322.517500", "163324.025000", "163325.530000", "163327.037500", "163328.542500", "163330.047500", "163331.555000", "163333.060000", "163334.567500", "163336.072500", "163337.577500", "163339.085000", "163340.590000", "163342.097500", "163343.602500", "163345.107500", "163346.615000", "163348.120000", "163349.627500", "163351.132500", "163352.637500", "163354.145000", "163355.650000", "163357.157500", "163358.662500", "163400.170000", "163401.675000", "163403.180000", "163404.687500", "163406.192500", "163407.700000", "163409.205000", "163410.710000", "163412.217500", "163413.722500", "163415.230000", "163416.735000", "163418.240000", "163419.747500", "163421.252500", "163422.760000", "163424.265000", "163425.772500", "163427.277500", "163428.782500", "163430.290000", "163431.795000", "163433.302500", "163434.807500", "163436.312500", "163437.820000", "163439.325000", "163440.832500", "163442.337500", "163443.842500", "163445.350000", "163446.855000", "163448.362500", "163449.867500", "163451.372500", "163452.880000", "163454.385000", "163455.892500", "163457.397500", "163458.905000", "163500.410000", "163501.915000", "163503.422500", "163504.927500", "163506.435000", "163507.940000", "163509.445000", "163510.952500", "163512.457500", "163513.965000", "163515.470000", "163516.975000", "163518.482500", "163519.987500", "163521.495000", "163523.000000", "163524.505000", "163526.012500", "163527.517500", "163529.025000", "163530.530000", "163532.037500", "163533.542500", "163535.047500", "163536.555000", "163538.060000", "163539.567500", "163541.072500", "163542.577500", "163544.085000", "163545.590000", "163547.097500", "163548.602500", "163550.107500", "163551.615000", "163553.120000", "163554.627500", "163556.132500", "163557.637500", "163559.145000", "163600.650000", "163602.157500", "163603.662500", "163605.170000", "163606.675000", "163608.180000"],
      "ContentTime": ["163438.171000", "163438.171000", "163438.171000", "163438.171000", "163438.187000", "163538.171000", "163538.171000", "163538.171000", "163538.171000", "163538.171000", "163538.171000", "163538.187000", "163538.187000", "163538.187000", "163538.187000", "163538.187000", "163538.187000", "163538.187000", "163538.203000", "163538.203000", "163538.203000", "163538.203000", "163538.203000", "163538.203000", "163538.203000", "163538.203000", "163538.203000", "163538.203000", "163538.218000", "163538.218000", "163538.218000", "163638.171000", "163638.171000", "163638.171000", "163638.171000", "163638.171000", "163638.171000", "163638.187000", "163638.187000", "163638.187000", "163638.187000", "163638.187000", "163638.187000", "163638.203000", "163638.203000", "163638.203000", "163638.203000", "163638.203000", "163638.203000", "163638.218000", "163638.218000", "163638.218000", "163638.218000", "163638.218000", "163638.218000", "163638.218000", "163638.218000", "163738.171000", "163738.171000", "163738.171000", "163738.171000", "163738.171000", "163738.171000", "163738.187000", "163738.187000", "163738.187000", "163738.187000", "163738.187000", "163738.187000", "163738.187000", "163738.187000", "163738.187000", "163738.203000", "163738.203000", "163738.203000", "163738.203000", "163738.203000", "163738.203000", "163738.218000", "163738.218000", "163738.218000", "163738.218000", "163738.218000", "163838.171000", "163838.171000", "163838.171000", "163838.171000", "163838.171000", "163838.171000", "163838.187000", "163838.187000", "163838.187000", "163838.187000", "163838.187000", "163838.187000", "163838.203000", "163838.203000", "163838.203000", "163838.203000", "163838.203000", "163838.203000", "163838.218000", "163838.218000", "163838.218000", "163838.218000", "163838.218000", "163838.218000", "163838.218000", "163838.218000", "163938.171000", "163938.171000", "163938.171000", "163938.171000", "163938.171000", "163938.171000", "163938.187000", "163938.187000", "163938.187000", "163938.187000", "163938.187000", "163938.187000", "163938.187000", "163938.187000", "163938.187000", "163938.203000", "163938.203000", "163938.203000", "163938.203000", "163938.203000", "163938.203000", "163938.203000", "163938.203000", "163938.203000", "163938.218000", "163938.218000", "164038.171000", "164038.171000", "164038.171000", "164038.171000", "164038.171000", "164038.171000", "164038.187000", "164038.187000", "164038.187000", "164038.187000", "164038.187000", "164038.187000", "164038.187000", "164038.187000", "164038.187000", "164038.203000", "164038.203000", "164038.203000", "164038.203000", "164038.203000", "164038.203000", "164038.203000", "164038.203000", "164038.203000", "164038.218000", "164038.218000", "164138.171000", "164138.171000", "164138.171000", "164138.171000", "164138.171000", "164138.171000", "164138.171000", "164138.187000", "164138.187000", "164138.187000", "164138.187000", "164138.187000", "164138.187000", "164138.187000", "164138.187000", "164138.187000", "164138.203000", "164138.203000", "164138.218000", "164138.218000", "164138.218000", "164138.218000", "164138.218000", "164138.218000", "164138.218000", "164138.218000", "164238.171000", "164238.171000", "164238.171000", "164238.171000", "164238.171000", "164238.171000", "164238.171000", "164238.187000", "164238.187000", "164238.187000", "164238.187000", "164238.187000", "164238.187000", "164238.187000", "164238.187000", "164238.187000", "164238.203000", "164238.203000", "164238.203000", "164238.203000", "164238.203000", "164238.203000", "164238.203000", "164238.203000", "164238.203000", "164238.218000", "164338.171000", "164338.171000", "164338.171000", "164338.171000", "164338.171000", "164338.171000", "164338.187000", "164338.187000", "164338.187000", "164338.187000", "164338.187000", "164338.187000", "164338.203000", "164338.203000", "164338.203000", "164338.203000", "164338.203000", "164338.203000", "164338.203000", "164338.218000", "164338.218000", "164338.218000", "164338.218000", "164338.218000", "164338.218000", "164338.218000", "164438.171000", "164438.171000", "164438.171000", "164438.171000", "164438.171000", "164438.171000", "164438.187000", "164438.187000", "164438.187000", "164438.187000", "164438.187000", "164438.187000", "164438.187000", "164438.187000", "164438.203000", "164438.203000", "164438.203000", "164438.203000", "164438.203000", "164438.203000", "164438.203000", "164438.203000", "164438.203000", "164438.218000", "164438.218000", "164438.218000", "164538.171000", "164538.171000", "164538.171000", "164538.171000", "164538.171000", "164538.171000", "164538.171000", "164538.187000", "164538.187000", "164538.187000", "164538.187000", "164538.187000", "164538.187000", "164538.187000", "164538.187000", "164538.187000", "164538.203000", "164538.203000", "164538.203000", "164538.203000", "164538.203000", "164538.203000", "164538.203000", "164538.203000", "164538.203000", "164538.218000", "164638.171000", "164638.171000", "164638.171000", "164638.171000", "164638.187000", "164638.187000", "164638.187000", "164638.187000", "164638.187000", "164638.187000", "164638.187000", "164638.187000", "164638.203000", "164638.203000", "164638.203000", "164638.203000", "164638.203000", "164638.203000", "164638.203000", "164638.203000", "164638.218000", "164638.218000", "164638.218000", "164638.218000", "164638.218000", "164638.234000", "164738.171000", "164738.171000", "164738.171000", "164738.187000", "164738.187000", "164738.187000", "164738.187000", "164738.187000", "164738.187000", "164738.187000", "164738.203000", "164738.203000", "164738.203000", "164738.203000", "164738.203000", "164738.203000", "164738.203000", "164738.203000", "164738.218000", "164738.218000", "164738.218000", "164738.218000", "164738.218000", "164738.218000", "164738.218000", "164738.218000", "164810.968000", "164810.968000", "164810.984000", "164810.984000", "164810.984000", "164811.000000", "164811.000000", "164811.000000", "164811.000000", "164811.000000", "164811.000000", "164811.000000", "164811.000000", "164811.000000"],
      "DataSetTrailingPadding": [
        "\u0000\u0000\u0000\u0000\u0000\u0000\u0000\u0000\u0000\u0000\u0000\u0000\u0000\u0000\u0000\u0000\u0000\u0000\u0000\u0000\u0000\u0000\u0000\u0000\u0000\u0000\u0000\u0000\u0000\u0000\u0000\u0000\u0000\u0000\u0000\u0000\u0000\u0000\u0000\u0000\u0000\u0000\u0000\u0000\u0000\u0000\u0000\u0000\u0000\u0000",
        "\u0000\u0000\u0000\u0000\u0000\u0000\u0000\u0000\u0000\u0000\u0000\u0000\u0000\u0000\u0000\u0000\u0000\u0000\u0000\u0000\u0000\u0000\u0000\u0000\u0000\u0000\u0000\u0000\u0000\u0000\u0000\u0000\u0000\u0000\u0000\u0000\u0000\u0000\u0000\u0000\u0000\u0000\u0000\u0000\u0000\u0000",
        "\u0000\u0000\u0000\u0000\u0000\u0000\u0000\u0000\u0000\u0000\u0000\u0000\u0000\u0000\u0000\u0000\u0000\u0000\u0000\u0000\u0000\u0000\u0000\u0000\u0000\u0000\u0000\u0000\u0000\u0000\u0000\u0000\u0000\u0000\u0000\u0000\u0000\u0000\u0000\u0000\u0000\u0000\u0000\u0000\u0000\u0000",
        "\u0000\u0000\u0000\u0000\u0000\u0000\u0000\u0000\u0000\u0000\u0000\u0000\u0000\u0000\u0000\u0000\u0000\u0000\u0000\u0000\u0000\u0000\u0000\u0000\u0000\u0000\u0000\u0000\u0000\u0000\u0000\u0000\u0000\u0000\u0000\u0000\u0000\u0000\u0000\u0000\u0000\u0000\u0000\u0000\u0000\u0000",
        "\u0000\u0000\u0000\u0000\u0000\u0000\u0000\u0000\u0000\u0000\u0000\u0000\u0000\u0000\u0000\u0000\u0000\u0000\u0000\u0000\u0000\u0000\u0000\u0000\u0000\u0000\u0000\u0000\u0000\u0000\u0000\u0000\u0000\u0000\u0000\u0000\u0000\u0000\u0000\u0000\u0000\u0000\u0000\u0000\u0000\u0000\u0000\u0000",
        "\u0000\u0000\u0000\u0000\u0000\u0000\u0000\u0000\u0000\u0000\u0000\u0000\u0000\u0000\u0000\u0000\u0000\u0000\u0000\u0000\u0000\u0000\u0000\u0000\u0000\u0000\u0000\u0000\u0000\u0000\u0000\u0000\u0000\u0000\u0000\u0000\u0000\u0000\u0000\u0000\u0000\u0000\u0000\u0000\u0000\u0000\u0000\u0000",
        "\u0000\u0000\u0000\u0000\u0000\u0000\u0000\u0000\u0000\u0000\u0000\u0000\u0000\u0000\u0000\u0000\u0000\u0000\u0000\u0000\u0000\u0000\u0000\u0000\u0000\u0000\u0000\u0000\u0000\u0000\u0000\u0000\u0000\u0000\u0000\u0000\u0000\u0000\u0000\u0000\u0000\u0000\u0000\u0000\u0000\u0000",
        "\u0000\u0000\u0000\u0000\u0000\u0000\u0000\u0000\u0000\u0000\u0000\u0000\u0000\u0000\u0000\u0000\u0000\u0000\u0000\u0000\u0000\u0000\u0000\u0000\u0000\u0000\u0000\u0000\u0000\u0000\u0000\u0000\u0000\u0000\u0000\u0000\u0000\u0000\u0000\u0000\u0000\u0000\u0000\u0000\u0000\u0000",
        "\u0000\u0000\u0000\u0000\u0000\u0000\u0000\u0000\u0000\u0000\u0000\u0000\u0000\u0000\u0000\u0000\u0000\u0000\u0000\u0000\u0000\u0000\u0000\u0000\u0000\u0000\u0000\u0000\u0000\u0000\u0000\u0000\u0000\u0000\u0000\u0000\u0000\u0000\u0000\u0000\u0000\u0000\u0000\u0000\u0000\u0000",
        "\u0000\u0000\u0000\u0000\u0000\u0000\u0000\u0000\u0000\u0000\u0000\u0000\u0000\u0000\u0000\u0000\u0000\u0000\u0000\u0000\u0000\u0000\u0000\u0000\u0000\u0000\u0000\u0000\u0000\u0000\u0000\u0000\u0000\u0000\u0000\u0000\u0000\u0000\u0000\u0000\u0000\u0000\u0000\u0000\u0000\u0000\u0000\u0000",
        "\u0000\u0000\u0000\u0000\u0000\u0000\u0000\u0000\u0000\u0000\u0000\u0000\u0000\u0000\u0000\u0000\u0000\u0000\u0000\u0000\u0000\u0000\u0000\u0000\u0000\u0000\u0000\u0000\u0000\u0000\u0000\u0000\u0000\u0000\u0000\u0000\u0000\u0000\u0000\u0000\u0000\u0000\u0000\u0000\u0000\u0000\u0000\u0000",
        "\u0000\u0000\u0000\u0000\u0000\u0000\u0000\u0000\u0000\u0000\u0000\u0000\u0000\u0000\u0000\u0000\u0000\u0000\u0000\u0000\u0000\u0000\u0000\u0000\u0000\u0000\u0000\u0000\u0000\u0000\u0000\u0000\u0000\u0000\u0000\u0000\u0000\u0000\u0000\u0000\u0000\u0000\u0000\u0000\u0000\u0000",
        "\u0000\u0000\u0000\u0000\u0000\u0000\u0000\u0000\u0000\u0000\u0000\u0000\u0000\u0000\u0000\u0000\u0000\u0000\u0000\u0000\u0000\u0000\u0000\u0000\u0000\u0000\u0000\u0000\u0000\u0000\u0000\u0000\u0000\u0000\u0000\u0000\u0000\u0000\u0000\u0000\u0000\u0000\u0000\u0000\u0000\u0000",
        "\u0000\u0000\u0000\u0000\u0000\u0000\u0000\u0000\u0000\u0000\u0000\u0000\u0000\u0000\u0000\u0000\u0000\u0000\u0000\u0000\u0000\u0000\u0000\u0000\u0000\u0000\u0000\u0000\u0000\u0000\u0000\u0000\u0000\u0000\u0000\u0000\u0000\u0000\u0000\u0000\u0000\u0000\u0000\u0000\u0000\u0000",
        "\u0000\u0000\u0000\u0000\u0000\u0000\u0000\u0000\u0000\u0000\u0000\u0000\u0000\u0000\u0000\u0000\u0000\u0000\u0000\u0000\u0000\u0000\u0000\u0000\u0000\u0000\u0000\u0000\u0000\u0000\u0000\u0000\u0000\u0000\u0000\u0000\u0000\u0000\u0000\u0000\u0000\u0000\u0000\u0000\u0000\u0000\u0000\u0000",
        "\u0000\u0000\u0000\u0000\u0000\u0000\u0000\u0000\u0000\u0000\u0000\u0000\u0000\u0000\u0000\u0000\u0000\u0000\u0000\u0000\u0000\u0000\u0000\u0000\u0000\u0000\u0000\u0000\u0000\u0000\u0000\u0000\u0000\u0000\u0000\u0000\u0000\u0000\u0000\u0000\u0000\u0000\u0000\u0000\u0000\u0000\u0000\u0000",
        "\u0000\u0000\u0000\u0000\u0000\u0000\u0000\u0000\u0000\u0000\u0000\u0000\u0000\u0000\u0000\u0000\u0000\u0000\u0000\u0000\u0000\u0000\u0000\u0000\u0000\u0000\u0000\u0000\u0000\u0000\u0000\u0000\u0000\u0000\u0000\u0000\u0000\u0000\u0000\u0000\u0000\u0000\u0000\u0000\u0000\u0000",
        "\u0000\u0000\u0000\u0000\u0000\u0000\u0000\u0000\u0000\u0000\u0000\u0000\u0000\u0000\u0000\u0000\u0000\u0000\u0000\u0000\u0000\u0000\u0000\u0000\u0000\u0000\u0000\u0000\u0000\u0000\u0000\u0000\u0000\u0000\u0000\u0000\u0000\u0000\u0000\u0000\u0000\u0000\u0000\u0000\u0000\u0000",
        "\u0000\u0000\u0000\u0000\u0000\u0000\u0000\u0000\u0000\u0000\u0000\u0000\u0000\u0000\u0000\u0000\u0000\u0000\u0000\u0000\u0000\u0000\u0000\u0000\u0000\u0000\u0000\u0000\u0000\u0000\u0000\u0000\u0000\u0000\u0000\u0000\u0000\u0000\u0000\u0000\u0000\u0000\u0000\u0000\u0000\u0000\u0000\u0000",
        "\u0000\u0000\u0000\u0000\u0000\u0000\u0000\u0000\u0000\u0000\u0000\u0000\u0000\u0000\u0000\u0000\u0000\u0000\u0000\u0000\u0000\u0000\u0000\u0000\u0000\u0000\u0000\u0000\u0000\u0000\u0000\u0000\u0000\u0000\u0000\u0000\u0000\u0000\u0000\u0000\u0000\u0000\u0000\u0000\u0000\u0000\u0000\u0000",
        "\u0000\u0000\u0000\u0000\u0000\u0000\u0000\u0000\u0000\u0000\u0000\u0000\u0000\u0000\u0000\u0000\u0000\u0000\u0000\u0000\u0000\u0000\u0000\u0000\u0000\u0000\u0000\u0000\u0000\u0000\u0000\u0000\u0000\u0000\u0000\u0000\u0000\u0000\u0000\u0000\u0000\u0000\u0000\u0000\u0000\u0000\u0000\u0000",
        "\u0000\u0000\u0000\u0000\u0000\u0000\u0000\u0000\u0000\u0000\u0000\u0000\u0000\u0000\u0000\u0000\u0000\u0000\u0000\u0000\u0000\u0000\u0000\u0000\u0000\u0000\u0000\u0000\u0000\u0000\u0000\u0000\u0000\u0000\u0000\u0000\u0000\u0000\u0000\u0000\u0000\u0000\u0000\u0000\u0000\u0000",
        "\u0000\u0000\u0000\u0000\u0000\u0000\u0000\u0000\u0000\u0000\u0000\u0000\u0000\u0000\u0000\u0000\u0000\u0000\u0000\u0000\u0000\u0000\u0000\u0000\u0000\u0000\u0000\u0000\u0000\u0000\u0000\u0000\u0000\u0000\u0000\u0000\u0000\u0000\u0000\u0000\u0000\u0000\u0000\u0000\u0000\u0000",
        "\u0000\u0000\u0000\u0000\u0000\u0000\u0000\u0000\u0000\u0000\u0000\u0000\u0000\u0000\u0000\u0000\u0000\u0000\u0000\u0000\u0000\u0000\u0000\u0000\u0000\u0000\u0000\u0000\u0000\u0000\u0000\u0000\u0000\u0000\u0000\u0000\u0000\u0000\u0000\u0000\u0000\u0000\u0000\u0000\u0000\u0000\u0000\u0000",
        "\u0000\u0000\u0000\u0000\u0000\u0000\u0000\u0000\u0000\u0000\u0000\u0000\u0000\u0000\u0000\u0000\u0000\u0000\u0000\u0000\u0000\u0000\u0000\u0000\u0000\u0000\u0000\u0000\u0000\u0000\u0000\u0000\u0000\u0000\u0000\u0000\u0000\u0000\u0000\u0000\u0000\u0000\u0000\u0000\u0000\u0000\u0000\u0000",
        "\u0000\u0000\u0000\u0000\u0000\u0000\u0000\u0000\u0000\u0000\u0000\u0000\u0000\u0000\u0000\u0000\u0000\u0000\u0000\u0000\u0000\u0000\u0000\u0000\u0000\u0000\u0000\u0000\u0000\u0000\u0000\u0000\u0000\u0000\u0000\u0000\u0000\u0000\u0000\u0000\u0000\u0000\u0000\u0000\u0000\u0000\u0000\u0000",
        "\u0000\u0000\u0000\u0000\u0000\u0000\u0000\u0000\u0000\u0000\u0000\u0000\u0000\u0000\u0000\u0000\u0000\u0000\u0000\u0000\u0000\u0000\u0000\u0000\u0000\u0000\u0000\u0000\u0000\u0000\u0000\u0000\u0000\u0000\u0000\u0000\u0000\u0000\u0000\u0000\u0000\u0000\u0000\u0000\u0000\u0000",
        "\u0000\u0000\u0000\u0000\u0000\u0000\u0000\u0000\u0000\u0000\u0000\u0000\u0000\u0000\u0000\u0000\u0000\u0000\u0000\u0000\u0000\u0000\u0000\u0000\u0000\u0000\u0000\u0000\u0000\u0000\u0000\u0000\u0000\u0000\u0000\u0000\u0000\u0000\u0000\u0000\u0000\u0000\u0000\u0000\u0000\u0000",
        "\u0000\u0000\u0000\u0000\u0000\u0000\u0000\u0000\u0000\u0000\u0000\u0000\u0000\u0000\u0000\u0000\u0000\u0000\u0000\u0000\u0000\u0000\u0000\u0000\u0000\u0000\u0000\u0000\u0000\u0000\u0000\u0000\u0000\u0000\u0000\u0000\u0000\u0000\u0000\u0000\u0000\u0000\u0000\u0000\u0000\u0000\u0000\u0000",
        "\u0000\u0000\u0000\u0000\u0000\u0000\u0000\u0000\u0000\u0000\u0000\u0000\u0000\u0000\u0000\u0000\u0000\u0000\u0000\u0000\u0000\u0000\u0000\u0000\u0000\u0000\u0000\u0000\u0000\u0000\u0000\u0000\u0000\u0000\u0000\u0000\u0000\u0000\u0000\u0000\u0000\u0000\u0000\u0000\u0000\u0000\u0000\u0000",
        "\u0000\u0000\u0000\u0000\u0000\u0000\u0000\u0000\u0000\u0000\u0000\u0000\u0000\u0000\u0000\u0000\u0000\u0000\u0000\u0000\u0000\u0000\u0000\u0000\u0000\u0000\u0000\u0000\u0000\u0000\u0000\u0000\u0000\u0000\u0000\u0000\u0000\u0000\u0000\u0000\u0000\u0000\u0000\u0000\u0000\u0000\u0000\u0000",
        "\u0000\u0000\u0000\u0000\u0000\u0000\u0000\u0000\u0000\u0000\u0000\u0000\u0000\u0000\u0000\u0000\u0000\u0000\u0000\u0000\u0000\u0000\u0000\u0000\u0000\u0000\u0000\u0000\u0000\u0000\u0000\u0000\u0000\u0000\u0000\u0000\u0000\u0000\u0000\u0000\u0000\u0000\u0000\u0000\u0000\u0000",
        "\u0000\u0000\u0000\u0000\u0000\u0000\u0000\u0000\u0000\u0000\u0000\u0000\u0000\u0000\u0000\u0000\u0000\u0000\u0000\u0000\u0000\u0000\u0000\u0000\u0000\u0000\u0000\u0000\u0000\u0000\u0000\u0000\u0000\u0000\u0000\u0000\u0000\u0000\u0000\u0000\u0000\u0000\u0000\u0000\u0000\u0000",
        "\u0000\u0000\u0000\u0000\u0000\u0000\u0000\u0000\u0000\u0000\u0000\u0000\u0000\u0000\u0000\u0000\u0000\u0000\u0000\u0000\u0000\u0000\u0000\u0000\u0000\u0000\u0000\u0000\u0000\u0000\u0000\u0000\u0000\u0000\u0000\u0000\u0000\u0000\u0000\u0000\u0000\u0000\u0000\u0000\u0000\u0000\u0000\u0000\u0000\u0000\u0000\u0000",
        "\u0000\u0000\u0000\u0000\u0000\u0000\u0000\u0000\u0000\u0000\u0000\u0000\u0000\u0000\u0000\u0000\u0000\u0000\u0000\u0000\u0000\u0000\u0000\u0000\u0000\u0000\u0000\u0000\u0000\u0000\u0000\u0000\u0000\u0000\u0000\u0000\u0000\u0000\u0000\u0000\u0000\u0000\u0000\u0000\u0000\u0000\u0000\u0000",
