{
  "AcquisitionMatrixPE": 110,
  "AcquisitionNumber": 1,
  "AcquisitionTime": "16:37:2.427500",
  "BandwidthPerPixelPhaseEncode": 26.35,
  "BaseResolution": 110,
  "CoilString": "C:HEA;HEP",
  "ConversionSoftware": "dcm2niix",
  "ConversionSoftwareVersion": "v1.0.20190410  GCC6.3.0",
  "DerivedVendorReportedEchoSpacing": 0.000690012,
  "DeviceSerialNumber": "35422",
  "DwellTime": 2.6e-06,
  "EchoTime": 0.03,
  "EffectiveEchoSpacing": 0.000345006,
  "FlipAngle": 85,
  "ImageComments": "Unaliased_MB4_PE4_LB",
  "ImageOrientationPatientDICOM": [0.999997, -0.000246003, -0.00239835, 2.0244e-10, 0.994781, -0.102036],
  "ImageType": [
    "ORIGINAL",
    "PRIMARY",
    "FMRI",
    "NONE",
    "MB",
    "ND",
    "MOSAIC"
],
  "ImagingFrequency": 123.178,
  "InPlanePhaseEncodingDirectionDICOM": "ROW",
  "InstitutionAddress": "kwanakro_599_C4F276_Seoul_KR_ZIP",
  "InstitutionName": "SNUBIC",
  "InstitutionalDepartmentName": "Department",
  "MRAcquisitionType": "2D",
  "MagneticFieldStrength": 3,
  "Manufacturer": "Siemens",
  "ManufacturersModelName": "TrioTim",
  "Modality": "MR",
  "MultibandAccelerationFactor": 4,
  "ParallelReductionFactorInPlane": 2,
  "PartialFourier": 1,
  "PatientPosition": "HFS",
  "PercentPhaseFOV": 100,
  "PhaseEncodingDirection": "i-",
  "PhaseEncodingSteps": 110,
  "PhaseResolution": 1,
  "PixelBandwidth": 1748,
  "ProcedureStepDescription": "SNU_SAVED",
  "ProtocolName": "WMGNG2_MB4_LR_SBRef",
  "PulseSequenceDetails": "%CustomerSeq%_cmrr_mbep2d_bold",
  "ReceiveCoilName": "32Ch_Head",
  "ReconMatrixPE": 110,
  "RefLinesPE": 32,
  "RepetitionTime": 1.5,
  "SAR": 0.138042,
  "ScanOptions": "FS",
  "ScanningSequence": "EP",
  "SequenceName": "epfid2d1_110",
  "SequenceVariant": "SK_SS",
  "SeriesDescription": "WMGNG2_MB4_LR_SBRef",
  "SeriesNumber": 18,
  "ShimSetting": [-4142, -29804, -2013, 891, 27, 276, -229, 32],
  "SliceThickness": 2.3,
  "SliceTiming": [0, 0.6575, 1.3175, 0.47, 1.1275, 0.2825, 0.94, 0.0925, 0.7525, 1.41, 0.565, 1.2225, 0.375, 1.035, 0.1875, 0.845, 0, 0.6575, 1.3175, 0.47, 1.1275, 0.2825, 0.94, 0.0925, 0.7525, 1.41, 0.565, 1.2225, 0.375, 1.035, 0.1875, 0.845, 0, 0.6575, 1.3175, 0.47, 1.1275, 0.2825, 0.94, 0.0925, 0.7525, 1.41, 0.565, 1.2225, 0.375, 1.035, 0.1875, 0.845, 0, 0.6575, 1.3175, 0.47, 1.1275, 0.2825, 0.94, 0.0925, 0.7525, 1.41, 0.565, 1.2225, 0.375, 1.035, 0.1875, 0.845],
  "SoftwareVersions": "syngo_MR_B17",
  "SpacingBetweenSlices": 2.3,
  "StationName": "MRC35422",
  "TaskName": "wmgng",
  "TotalReadoutTime": 0.0376057,
  "TxRefAmp": 314.389,
  "dcmmeta_affine": [
    [-2.327265977859497, 4.711332990403605e-10, -0.005545142572373152, 134.00489807128906],
    [0.000572516000829637, 2.3151259422302246, -0.23468302190303802, -113.15313720703125],
    [-0.00558161037042737, 0.23746651411056519, 2.2879889011383057, -48.73089599609375],
    [0.0, 0.0, 0.0, 1.0]
],
  "dcmmeta_reorient_transform": [
    [0.0, -1.0, 0.0, 109.0],
    [1.0, 0.0, 0.0, 0.0],
    [0.0, 0.0, 1.0, 0.0],
    [0.0, 0.0, 0.0, 1.0]
],
  "dcmmeta_shape": [110, 110, 64, 357],
  "dcmmeta_slice_dim": 2,
  "dcmmeta_version": 0.6,
  "global": {
    "const": {
      "AcquisitionMatrix": [0, 110, 110, 0],
      "AngioFlag": "N",
      "BitsAllocated": 16,
      "BitsStored": 12,
      "Columns": 880,
      "EchoNumbers": 1,
      "EchoTime": 30.0,
      "EchoTrainLength": 1,
      "FlipAngle": 85.0,
      "HighBit": 11,
      "ImageOrientationPatient": [0.99999709369996, -0.0002460029804, -0.0023983482152, 2.024401e-10, 0.99478066630329, -0.1020363952185],
      "ImagePositionPatient": [-1030.0022688881, -1030.2986112722, 70.726482727748],
      "ImageType": [
        "ORIGINAL",
        "PRIMARY",
        "FMRI",
        "NONE",
        "MB",
        "ND",
        "MOSAIC"
],
      "ImagedNucleus": "1H",
      "ImagingFrequency": 123.177572,
      "InPlanePhaseEncodingDirection": "ROW",
      "MRAcquisitionType": "2D",
      "MagneticFieldStrength": 3.0,
      "Manufacturer": "SIEMENS",
      "ManufacturerModelName": "TrioTim",
      "Modality": "MR",
      "NumberOfAverages": 1.0,
      "NumberOfPhaseEncodingSteps": 110,
      "PercentPhaseFieldOfView": 100.0,
      "PercentSampling": 100.0,
      "PerformedProcedureStepStartTime": "154659.031000",
      "PhotometricInterpretation": "MONOCHROME2",
      "PixelBandwidth": 1748.0,
      "PixelRepresentation": 0,
      "PixelSpacing": [2.3272726535797, 2.3272726535797],
      "ProtocolName": "WMGNG2_MB4_LR_SBRef",
      "ReferencedPerformedProcedureStepSequence": [
        {
          "ReferencedSOPClassUID": "1.2.840.10008.3.1.2.3.3",
          "ReferencedSOPInstanceUID": "1.3.12.2.1107.5.2.32.35422.30000020011402064696800000005"}
],
      "RepetitionTime": 1500.0,
      "Rows": 880,
      "SAR": 0.13804178818714,
      "SamplesPerPixel": 1,
      "ScanOptions": "FS",
      "ScanningSequence": "EP",
      "SequenceName": "epfid2d1_110",
      "SequenceVariant": [
        "SK",
        "SS"
],
      "SeriesDescription": "WMGNG2_MB4_LR_SBRef",
      "SeriesNumber": 18,
      "SeriesTime": "164900.265000",
      "SliceLocation": -37.253782739126,
      "SliceThickness": 2.2999999523163,
      "SmallestImagePixelValue": 0,
      "SoftwareVersions": "syngo MR B17",
      "SpacingBetweenSlices": 2.2999999310312,
      "SpecificCharacterSet": "ISO_IR 100",
      "StudyID": "1",
      "StudyTime": "154658.968000",
      "TransmitCoilName": "Body",
      "VariableFlipAngleFlag": "N",
      "WindowCenterWidthExplanation": "Algo1",
      "dBdt": 0.0},
    "slices": {}
  },
  "time": {
    "samples": {
      "AcquisitionNumber": [1, 2, 3, 4, 5, 6, 7, 8, 9, 10, 11, 12, 13, 14, 15, 16, 17, 18, 19, 20, 21, 22, 23, 24, 25, 26, 27, 28, 29, 30, 31, 32, 33, 34, 35, 36, 37, 38, 39, 40, 41, 42, 43, 44, 45, 46, 47, 48, 49, 50, 51, 52, 53, 54, 55, 56, 57, 58, 59, 60, 61, 62, 63, 64, 65, 66, 67, 68, 69, 70, 71, 72, 73, 74, 75, 76, 77, 78, 79, 80, 81, 82, 83, 84, 85, 86, 87, 88, 89, 90, 91, 92, 93, 94, 95, 96, 97, 98, 99, 100, 101, 102, 103, 104, 105, 106, 107, 108, 109, 110, 111, 112, 113, 114, 115, 116, 117, 118, 119, 120, 121, 122, 123, 124, 125, 126, 127, 128, 129, 130, 131, 132, 133, 134, 135, 136, 137, 138, 139, 140, 141, 142, 143, 144, 145, 146, 147, 148, 149, 150, 151, 152, 153, 154, 155, 156, 157, 158, 159, 160, 161, 162, 163, 164, 165, 166, 167, 168, 169, 170, 171, 172, 173, 174, 175, 176, 177, 178, 179, 180, 181, 182, 183, 184, 185, 186, 187, 188, 189, 190, 191, 192, 193, 194, 195, 196, 197, 198, 199, 200, 201, 202, 203, 204, 205, 206, 207, 208, 209, 210, 211, 212, 213, 214, 215, 216, 217, 218, 219, 220, 221, 222, 223, 224, 225, 226, 227, 228, 229, 230, 231, 232, 233, 234, 235, 236, 237, 238, 239, 240, 241, 242, 243, 244, 245, 246, 247, 248, 249, 250, 251, 252, 253, 254, 255, 256, 257, 258, 259, 260, 261, 262, 263, 264, 265, 266, 267, 268, 269, 270, 271, 272, 273, 274, 275, 276, 277, 278, 279, 280, 281, 282, 283, 284, 285, 286, 287, 288, 289, 290, 291, 292, 293, 294, 295, 296, 297, 298, 299, 300, 301, 302, 303, 304, 305, 306, 307, 308, 309, 310, 311, 312, 313, 314, 315, 316, 317, 318, 319, 320, 321, 322, 323, 324, 325, 326, 327, 328, 329, 330, 331, 332, 333, 334, 335, 336, 337, 338, 339, 340, 341, 342, 343, 344, 345, 346, 347, 348, 349, 350, 351, 352, 353, 354, 355, 356, 357],
      "AcquisitionTime": ["163702.427500", "163703.932500", "163705.440000", "163706.945000", "163708.450000", "163709.957500", "163711.462500", "163712.970000", "163714.475000", "163715.980000", "163717.487500", "163718.992500", "163720.500000", "163722.005000", "163723.510000", "163725.017500", "163726.522500", "163728.030000", "163729.535000", "163731.042500", "163732.547500", "163734.052500", "163735.560000", "163737.065000", "163738.572500", "163740.077500", "163741.582500", "163743.090000", "163744.595000", "163746.102500", "163747.607500", "163749.112500", "163750.620000", "163752.125000", "163753.632500", "163755.137500", "163756.642500", "163758.150000", "163759.655000", "163801.162500", "163802.667500", "163804.175000", "163805.680000", "163807.185000", "163808.692500", "163810.197500", "163811.705000", "163813.210000", "163814.715000", "163816.222500", "163817.727500", "163819.235000", "163820.740000", "163822.245000", "163823.752500", "163825.257500", "163826.765000", "163828.270000", "163829.775000", "163831.282500", "163832.787500", "163834.295000", "163835.800000", "163837.307500", "163838.812500", "163840.317500", "163841.825000", "163843.330000", "163844.837500", "163846.342500", "163847.847500", "163849.355000", "163850.860000", "163852.367500", "163853.872500", "163855.377500", "163856.885000", "163858.390000", "163859.897500", "163901.402500", "163902.910000", "163904.415000", "163905.920000", "163907.427500", "163908.932500", "163910.440000", "163911.945000", "163913.450000", "163914.957500", "163916.462500", "163917.970000", "163919.475000", "163920.980000", "163922.487500", "163923.992500", "163925.500000", "163927.005000", "163928.510000", "163930.017500", "163931.522500", "163933.030000", "163934.535000", "163936.042500", "163937.547500", "163939.052500", "163940.560000", "163942.065000", "163943.572500", "163945.077500", "163946.582500", "163948.090000", "163949.595000", "163951.102500", "163952.607500", "163954.112500", "163955.620000", "163957.125000", "163958.632500", "164000.137500", "164001.642500", "164003.150000", "164004.655000", "164006.162500", "164007.667500", "164009.175000", "164010.680000", "164012.185000", "164013.692500", "164015.197500", "164016.705000", "164018.210000", "164019.715000", "164021.222500", "164022.727500", "164024.235000", "164025.740000", "164027.245000", "164028.752500", "164030.257500", "164031.765000", "164033.270000", "164034.775000", "164036.282500", "164037.787500", "164039.295000", "164040.800000", "164042.307500", "164043.812500", "164045.317500", "164046.825000", "164048.330000", "164049.837500", "164051.342500", "164052.847500", "164054.355000", "164055.860000", "164057.367500", "164058.872500", "164100.377500", "164101.885000", "164103.390000", "164104.897500", "164106.402500", "164107.910000", "164109.415000", "164110.920000", "164112.427500", "164113.932500", "164115.440000", "164116.945000", "164118.450000", "164119.957500", "164121.462500", "164122.970000", "164124.475000", "164125.980000", "164127.487500", "164128.992500", "164130.500000", "164132.005000", "164133.510000", "164135.017500", "164136.522500", "164138.030000", "164139.535000", "164141.042500", "164142.547500", "164144.052500", "164145.560000", "164147.065000", "164148.572500", "164150.077500", "164151.582500", "164153.090000", "164154.595000", "164156.102500", "164157.607500", "164159.112500", "164200.620000", "164202.125000", "164203.632500", "164205.137500", "164206.642500", "164208.150000", "164209.655000", "164211.162500", "164212.667500", "164214.175000", "164215.680000", "164217.185000", "164218.692500", "164220.197500", "164221.705000", "164223.210000", "164224.715000", "164226.222500", "164227.727500", "164229.235000", "164230.740000", "164232.245000", "164233.752500", "164235.257500", "164236.765000", "164238.270000", "164239.775000", "164241.282500", "164242.787500", "164244.295000", "164245.800000", "164247.307500", "164248.812500", "164250.317500", "164251.825000", "164253.330000", "164254.837500", "164256.342500", "164257.847500", "164259.355000", "164300.860000", "164302.367500", "164303.872500", "164305.377500", "164306.885000", "164308.390000", "164309.897500", "164311.402500", "164312.910000", "164314.415000", "164315.920000", "164317.427500", "164318.932500", "164320.440000", "164321.945000", "164323.450000", "164324.957500", "164326.462500", "164327.970000", "164329.475000", "164330.980000", "164332.487500", "164333.992500", "164335.500000", "164337.005000", "164338.510000", "164340.017500", "164341.522500", "164343.030000", "164344.535000", "164346.042500", "164347.547500", "164349.052500", "164350.560000", "164352.065000", "164353.572500", "164355.077500", "164356.582500", "164358.090000", "164359.595000", "164401.102500", "164402.607500", "164404.112500", "164405.620000", "164407.125000", "164408.632500", "164410.137500", "164411.642500", "164413.150000", "164414.655000", "164416.162500", "164417.667500", "164419.175000", "164420.680000", "164422.185000", "164423.692500", "164425.197500", "164426.705000", "164428.210000", "164429.715000", "164431.222500", "164432.727500", "164434.235000", "164435.740000", "164437.245000", "164438.752500", "164440.257500", "164441.765000", "164443.270000", "164444.775000", "164446.282500", "164447.787500", "164449.295000", "164450.800000", "164452.307500", "164453.812500", "164455.317500", "164456.825000", "164458.330000", "164459.837500", "164501.342500", "164502.847500", "164504.355000", "164505.860000", "164507.367500", "164508.872500", "164510.377500", "164511.885000", "164513.390000", "164514.897500", "164516.402500", "164517.910000", "164519.415000", "164520.920000", "164522.427500", "164523.932500", "164525.440000", "164526.945000", "164528.450000", "164529.957500", "164531.462500", "164532.970000", "164534.475000", "164535.980000", "164537.487500", "164538.992500", "164540.500000", "164542.005000", "164543.510000", "164545.017500", "164546.522500", "164548.030000", "164549.535000", "164551.042500", "164552.547500", "164554.052500", "164555.560000", "164557.065000", "164558.572500"],
      "ContentTime": ["164900.265000", "164900.265000", "164900.265000", "164900.281000", "164900.281000", "164900.296000", "164900.296000", "165000.265000", "165000.265000", "165000.265000", "165000.265000", "165000.281000", "165000.281000", "165000.281000", "165000.281000", "165000.281000", "165000.281000", "165000.281000", "165000.281000", "165000.281000", "165000.296000", "165000.296000", "165000.296000", "165000.296000", "165000.296000", "165000.312000", "165000.312000", "165000.312000", "165000.312000", "165000.312000", "165000.312000", "165000.312000", "165000.312000", "165040.265000", "165040.265000", "165040.265000", "165040.265000", "165040.265000", "165040.265000", "165040.265000", "165040.281000", "165040.281000", "165040.281000", "165040.281000", "165040.281000", "165040.281000", "165040.281000", "165040.281000", "165040.281000", "165040.296000", "165140.265000", "165140.265000", "165140.265000", "165140.265000", "165140.265000", "165140.265000", "165140.281000", "165140.281000", "165140.281000", "165140.281000", "165140.281000", "165140.281000", "165140.281000", "165140.296000", "165140.296000", "165140.296000", "165140.296000", "165140.312000", "165140.312000", "165140.312000", "165140.312000", "165140.312000", "165140.312000", "165140.312000", "165140.312000", "165240.265000", "165240.265000", "165240.281000", "165240.281000", "165240.281000", "165240.281000", "165240.296000", "165240.296000", "165240.296000", "165240.312000", "165240.312000", "165240.312000", "165240.312000", "165240.312000", "165240.312000", "165240.312000", "165240.312000", "165240.312000", "165240.328000", "165240.328000", "165240.328000", "165240.328000", "165240.328000", "165240.328000", "165240.328000", "165240.328000", "165340.265000", "165340.265000", "165340.265000", "165340.265000", "165340.265000", "165340.265000", "165340.281000", "165340.281000", "165340.281000", "165340.281000", "165340.281000", "165340.281000", "165340.281000", "165340.281000", "165340.281000", "165340.281000", "165340.296000", "165340.296000", "165340.296000", "165340.296000", "165340.296000", "165340.296000", "165340.296000", "165340.312000", "165340.312000", "165340.312000", "165440.265000", "165440.265000", "165440.265000", "165440.265000", "165440.265000", "165440.265000", "165440.265000", "165440.281000", "165440.281000", "165440.281000", "165440.281000", "165440.281000", "165440.281000", "165440.281000", "165440.281000", "165440.281000", "165440.296000", "165440.296000", "165440.296000", "165440.296000", "165440.296000", "165440.296000", "165440.312000", "165440.312000", "165440.312000", "165440.312000", "165540.265000", "165540.265000", "165540.265000", "165540.265000", "165540.265000", "165540.265000", "165540.281000", "165540.281000", "165540.281000", "165540.281000", "165540.281000", "165540.281000", "165540.281000", "165540.296000", "165540.296000", "165540.296000", "165540.296000", "165540.296000", "165540.296000", "165540.296000", "165540.296000", "165540.296000", "165540.312000", "165540.312000", "165540.312000", "165540.312000", "165640.265000", "165640.265000", "165640.281000", "165640.281000", "165640.281000", "165640.281000", "165640.281000", "165640.296000", "165640.296000", "165640.296000", "165640.296000", "165640.296000", "165640.296000", "165640.296000", "165640.296000", "165640.296000", "165640.312000", "165640.312000", "165640.312000", "165640.312000", "165640.312000", "165640.312000", "165640.328000", "165640.328000", "165640.328000", "165640.328000", "165740.265000", "165740.265000", "165740.265000", "165740.281000", "165740.281000", "165740.281000", "165740.281000", "165740.281000", "165740.281000", "165740.281000", "165740.281000", "165740.281000", "165740.296000", "165740.296000", "165740.296000", "165740.296000", "165740.296000", "165740.296000", "165740.296000", "165740.296000", "165740.312000", "165740.312000", "165740.312000", "165740.312000", "165740.312000", "165740.312000", "165840.265000", "165840.265000", "165840.265000", "165840.265000", "165840.265000", "165840.265000", "165840.265000", "165840.281000", "165840.281000", "165840.281000", "165840.281000", "165840.281000", "165840.281000", "165840.281000", "165840.281000", "165840.281000", "165840.296000", "165840.296000", "165840.296000", "165840.296000", "165840.296000", "165840.312000", "165840.312000", "165840.312000", "165840.312000", "165840.312000", "165940.265000", "165940.265000", "165940.265000", "165940.265000", "165940.265000", "165940.265000", "165940.281000", "165940.281000", "165940.281000", "165940.281000", "165940.281000", "165940.281000", "165940.296000", "165940.296000", "165940.296000", "165940.296000", "165940.296000", "165940.296000", "165940.296000", "165940.296000", "165940.312000", "165940.312000", "165940.312000", "165940.312000", "165940.312000", "165940.312000", "170040.265000", "170040.265000", "170040.265000", "170040.265000", "170040.265000", "170040.265000", "170040.265000", "170040.281000", "170040.281000", "170040.281000", "170040.281000", "170040.281000", "170040.281000", "170040.281000", "170040.281000", "170040.281000", "170040.296000", "170040.296000", "170040.296000", "170040.296000", "170040.296000", "170040.312000", "170040.312000", "170040.312000", "170040.312000", "170040.312000", "170140.265000", "170140.265000", "170140.265000", "170140.265000", "170140.281000", "170140.281000", "170140.281000", "170140.281000", "170140.281000", "170140.281000", "170140.281000", "170140.296000", "170140.296000", "170140.296000", "170140.296000", "170140.296000", "170140.296000", "170140.312000", "170140.312000", "170140.312000", "170140.312000", "170140.312000", "170140.312000", "170140.312000", "170140.312000", "170140.312000", "170230.703000", "170230.703000", "170230.703000", "170230.718000", "170230.734000", "170230.734000", "170230.734000", "170230.734000", "170230.734000", "170230.734000", "170230.750000", "170230.750000", "170230.750000", "170230.750000", "170230.750000", "170230.750000", "170230.750000", "170230.765000", "170230.765000", "170230.765000", "170230.765000", "170230.765000"],
      "DataSetTrailingPadding": [
        "\u0000\u0000\u0000\u0000\u0000\u0000\u0000\u0000\u0000\u0000\u0000\u0000\u0000\u0000\u0000\u0000\u0000\u0000\u0000\u0000\u0000\u0000\u0000\u0000\u0000\u0000\u0000\u0000\u0000\u0000\u0000\u0000\u0000\u0000\u0000\u0000\u0000\u0000\u0000\u0000\u0000\u0000\u0000\u0000\u0000\u0000\u0000\u0000",
        "\u0000\u0000\u0000\u0000\u0000\u0000\u0000\u0000\u0000\u0000\u0000\u0000\u0000\u0000\u0000\u0000\u0000\u0000\u0000\u0000\u0000\u0000\u0000\u0000\u0000\u0000\u0000\u0000\u0000\u0000\u0000\u0000\u0000\u0000\u0000\u0000\u0000\u0000\u0000\u0000\u0000\u0000\u0000\u0000\u0000\u0000",
        "\u0000\u0000\u0000\u0000\u0000\u0000\u0000\u0000\u0000\u0000\u0000\u0000\u0000\u0000\u0000\u0000\u0000\u0000\u0000\u0000\u0000\u0000\u0000\u0000\u0000\u0000\u0000\u0000\u0000\u0000\u0000\u0000\u0000\u0000\u0000\u0000\u0000\u0000\u0000\u0000\u0000\u0000\u0000\u0000\u0000\u0000",
        "\u0000\u0000\u0000\u0000\u0000\u0000\u0000\u0000\u0000\u0000\u0000\u0000\u0000\u0000\u0000\u0000\u0000\u0000\u0000\u0000\u0000\u0000\u0000\u0000\u0000\u0000\u0000\u0000\u0000\u0000\u0000\u0000\u0000\u0000\u0000\u0000\u0000\u0000\u0000\u0000\u0000\u0000\u0000\u0000\u0000\u0000\u0000\u0000",
        "\u0000\u0000\u0000\u0000\u0000\u0000\u0000\u0000\u0000\u0000\u0000\u0000\u0000\u0000\u0000\u0000\u0000\u0000\u0000\u0000\u0000\u0000\u0000\u0000\u0000\u0000\u0000\u0000\u0000\u0000\u0000\u0000\u0000\u0000\u0000\u0000\u0000\u0000\u0000\u0000\u0000\u0000\u0000\u0000\u0000\u0000\u0000\u0000",
        "\u0000\u0000\u0000\u0000\u0000\u0000\u0000\u0000\u0000\u0000\u0000\u0000\u0000\u0000\u0000\u0000\u0000\u0000\u0000\u0000\u0000\u0000\u0000\u0000\u0000\u0000\u0000\u0000\u0000\u0000\u0000\u0000\u0000\u0000\u0000\u0000\u0000\u0000\u0000\u0000\u0000\u0000\u0000\u0000\u0000\u0000\u0000\u0000",
        "\u0000\u0000\u0000\u0000\u0000\u0000\u0000\u0000\u0000\u0000\u0000\u0000\u0000\u0000\u0000\u0000\u0000\u0000\u0000\u0000\u0000\u0000\u0000\u0000\u0000\u0000\u0000\u0000\u0000\u0000\u0000\u0000\u0000\u0000\u0000\u0000\u0000\u0000\u0000\u0000\u0000\u0000\u0000\u0000\u0000\u0000",
        "\u0000\u0000\u0000\u0000\u0000\u0000\u0000\u0000\u0000\u0000\u0000\u0000\u0000\u0000\u0000\u0000\u0000\u0000\u0000\u0000\u0000\u0000\u0000\u0000\u0000\u0000\u0000\u0000\u0000\u0000\u0000\u0000\u0000\u0000\u0000\u0000\u0000\u0000\u0000\u0000\u0000\u0000\u0000\u0000\u0000\u0000",
        "\u0000\u0000\u0000\u0000\u0000\u0000\u0000\u0000\u0000\u0000\u0000\u0000\u0000\u0000\u0000\u0000\u0000\u0000\u0000\u0000\u0000\u0000\u0000\u0000\u0000\u0000\u0000\u0000\u0000\u0000\u0000\u0000\u0000\u0000\u0000\u0000\u0000\u0000\u0000\u0000\u0000\u0000\u0000\u0000\u0000\u0000\u0000\u0000",
        "\u0000\u0000\u0000\u0000\u0000\u0000\u0000\u0000\u0000\u0000\u0000\u0000\u0000\u0000\u0000\u0000\u0000\u0000\u0000\u0000\u0000\u0000\u0000\u0000\u0000\u0000\u0000\u0000\u0000\u0000\u0000\u0000\u0000\u0000\u0000\u0000\u0000\u0000\u0000\u0000\u0000\u0000\u0000\u0000\u0000\u0000\u0000\u0000",
        "\u0000\u0000\u0000\u0000\u0000\u0000\u0000\u0000\u0000\u0000\u0000\u0000\u0000\u0000\u0000\u0000\u0000\u0000\u0000\u0000\u0000\u0000\u0000\u0000\u0000\u0000\u0000\u0000\u0000\u0000\u0000\u0000\u0000\u0000\u0000\u0000\u0000\u0000\u0000\u0000\u0000\u0000\u0000\u0000\u0000\u0000\u0000\u0000",
        "\u0000\u0000\u0000\u0000\u0000\u0000\u0000\u0000\u0000\u0000\u0000\u0000\u0000\u0000\u0000\u0000\u0000\u0000\u0000\u0000\u0000\u0000\u0000\u0000\u0000\u0000\u0000\u0000\u0000\u0000\u0000\u0000\u0000\u0000\u0000\u0000\u0000\u0000\u0000\u0000\u0000\u0000\u0000\u0000\u0000\u0000",
        "\u0000\u0000\u0000\u0000\u0000\u0000\u0000\u0000\u0000\u0000\u0000\u0000\u0000\u0000\u0000\u0000\u0000\u0000\u0000\u0000\u0000\u0000\u0000\u0000\u0000\u0000\u0000\u0000\u0000\u0000\u0000\u0000\u0000\u0000\u0000\u0000\u0000\u0000\u0000\u0000\u0000\u0000\u0000\u0000\u0000\u0000",
        "\u0000\u0000\u0000\u0000\u0000\u0000\u0000\u0000\u0000\u0000\u0000\u0000\u0000\u0000\u0000\u0000\u0000\u0000\u0000\u0000\u0000\u0000\u0000\u0000\u0000\u0000\u0000\u0000\u0000\u0000\u0000\u0000\u0000\u0000\u0000\u0000\u0000\u0000\u0000\u0000\u0000\u0000\u0000\u0000\u0000\u0000\u0000\u0000",
        "\u0000\u0000\u0000\u0000\u0000\u0000\u0000\u0000\u0000\u0000\u0000\u0000\u0000\u0000\u0000\u0000\u0000\u0000\u0000\u0000\u0000\u0000\u0000\u0000\u0000\u0000\u0000\u0000\u0000\u0000\u0000\u0000\u0000\u0000\u0000\u0000\u0000\u0000\u0000\u0000\u0000\u0000\u0000\u0000\u0000\u0000\u0000\u0000",
        "\u0000\u0000\u0000\u0000\u0000\u0000\u0000\u0000\u0000\u0000\u0000\u0000\u0000\u0000\u0000\u0000\u0000\u0000\u0000\u0000\u0000\u0000\u0000\u0000\u0000\u0000\u0000\u0000\u0000\u0000\u0000\u0000\u0000\u0000\u0000\u0000\u0000\u0000\u0000\u0000\u0000\u0000\u0000\u0000\u0000\u0000\u0000\u0000",
        "\u0000\u0000\u0000\u0000\u0000\u0000\u0000\u0000\u0000\u0000\u0000\u0000\u0000\u0000\u0000\u0000\u0000\u0000\u0000\u0000\u0000\u0000\u0000\u0000\u0000\u0000\u0000\u0000\u0000\u0000\u0000\u0000\u0000\u0000\u0000\u0000\u0000\u0000\u0000\u0000\u0000\u0000\u0000\u0000\u0000\u0000",
        "\u0000\u0000\u0000\u0000\u0000\u0000\u0000\u0000\u0000\u0000\u0000\u0000\u0000\u0000\u0000\u0000\u0000\u0000\u0000\u0000\u0000\u0000\u0000\u0000\u0000\u0000\u0000\u0000\u0000\u0000\u0000\u0000\u0000\u0000\u0000\u0000\u0000\u0000\u0000\u0000\u0000\u0000\u0000\u0000\u0000\u0000",
        "\u0000\u0000\u0000\u0000\u0000\u0000\u0000\u0000\u0000\u0000\u0000\u0000\u0000\u0000\u0000\u0000\u0000\u0000\u0000\u0000\u0000\u0000\u0000\u0000\u0000\u0000\u0000\u0000\u0000\u0000\u0000\u0000\u0000\u0000\u0000\u0000\u0000\u0000\u0000\u0000\u0000\u0000\u0000\u0000\u0000\u0000\u0000\u0000",
        "\u0000\u0000\u0000\u0000\u0000\u0000\u0000\u0000\u0000\u0000\u0000\u0000\u0000\u0000\u0000\u0000\u0000\u0000\u0000\u0000\u0000\u0000\u0000\u0000\u0000\u0000\u0000\u0000\u0000\u0000\u0000\u0000\u0000\u0000\u0000\u0000\u0000\u0000\u0000\u0000\u0000\u0000\u0000\u0000\u0000\u0000\u0000\u0000\u0000\u0000",
        "\u0000\u0000\u0000\u0000\u0000\u0000\u0000\u0000\u0000\u0000\u0000\u0000\u0000\u0000\u0000\u0000\u0000\u0000\u0000\u0000\u0000\u0000\u0000\u0000\u0000\u0000\u0000\u0000\u0000\u0000\u0000\u0000\u0000\u0000\u0000\u0000\u0000\u0000\u0000\u0000\u0000\u0000\u0000\u0000\u0000\u0000",
        "\u0000\u0000\u0000\u0000\u0000\u0000\u0000\u0000\u0000\u0000\u0000\u0000\u0000\u0000\u0000\u0000\u0000\u0000\u0000\u0000\u0000\u0000\u0000\u0000\u0000\u0000\u0000\u0000\u0000\u0000\u0000\u0000\u0000\u0000\u0000\u0000\u0000\u0000\u0000\u0000\u0000\u0000\u0000\u0000\u0000\u0000",
        "\u0000\u0000\u0000\u0000\u0000\u0000\u0000\u0000\u0000\u0000\u0000\u0000\u0000\u0000\u0000\u0000\u0000\u0000\u0000\u0000\u0000\u0000\u0000\u0000\u0000\u0000\u0000\u0000\u0000\u0000\u0000\u0000\u0000\u0000\u0000\u0000\u0000\u0000\u0000\u0000\u0000\u0000\u0000\u0000\u0000\u0000",
        "\u0000\u0000\u0000\u0000\u0000\u0000\u0000\u0000\u0000\u0000\u0000\u0000\u0000\u0000\u0000\u0000\u0000\u0000\u0000\u0000\u0000\u0000\u0000\u0000\u0000\u0000\u0000\u0000\u0000\u0000\u0000\u0000\u0000\u0000\u0000\u0000\u0000\u0000\u0000\u0000\u0000\u0000\u0000\u0000\u0000\u0000\u0000\u0000",
        "\u0000\u0000\u0000\u0000\u0000\u0000\u0000\u0000\u0000\u0000\u0000\u0000\u0000\u0000\u0000\u0000\u0000\u0000\u0000\u0000\u0000\u0000\u0000\u0000\u0000\u0000\u0000\u0000\u0000\u0000\u0000\u0000\u0000\u0000\u0000\u0000\u0000\u0000\u0000\u0000\u0000\u0000\u0000\u0000\u0000\u0000\u0000\u0000",
        "\u0000\u0000\u0000\u0000\u0000\u0000\u0000\u0000\u0000\u0000\u0000\u0000\u0000\u0000\u0000\u0000\u0000\u0000\u0000\u0000\u0000\u0000\u0000\u0000\u0000\u0000\u0000\u0000\u0000\u0000\u0000\u0000\u0000\u0000\u0000\u0000\u0000\u0000\u0000\u0000\u0000\u0000\u0000\u0000\u0000\u0000",
        "\u0000\u0000\u0000\u0000\u0000\u0000\u0000\u0000\u0000\u0000\u0000\u0000\u0000\u0000\u0000\u0000\u0000\u0000\u0000\u0000\u0000\u0000\u0000\u0000\u0000\u0000\u0000\u0000\u0000\u0000\u0000\u0000\u0000\u0000\u0000\u0000\u0000\u0000\u0000\u0000\u0000\u0000\u0000\u0000\u0000\u0000\u0000\u0000\u0000\u0000",
        "\u0000\u0000\u0000\u0000\u0000\u0000\u0000\u0000\u0000\u0000\u0000\u0000\u0000\u0000\u0000\u0000\u0000\u0000\u0000\u0000\u0000\u0000\u0000\u0000\u0000\u0000\u0000\u0000\u0000\u0000\u0000\u0000\u0000\u0000\u0000\u0000\u0000\u0000\u0000\u0000\u0000\u0000\u0000\u0000\u0000\u0000",
        "\u0000\u0000\u0000\u0000\u0000\u0000\u0000\u0000\u0000\u0000\u0000\u0000\u0000\u0000\u0000\u0000\u0000\u0000\u0000\u0000\u0000\u0000\u0000\u0000\u0000\u0000\u0000\u0000\u0000\u0000\u0000\u0000\u0000\u0000\u0000\u0000\u0000\u0000\u0000\u0000\u0000\u0000\u0000\u0000\u0000\u0000\u0000\u0000",
        "\u0000\u0000\u0000\u0000\u0000\u0000\u0000\u0000\u0000\u0000\u0000\u0000\u0000\u0000\u0000\u0000\u0000\u0000\u0000\u0000\u0000\u0000\u0000\u0000\u0000\u0000\u0000\u0000\u0000\u0000\u0000\u0000\u0000\u0000\u0000\u0000\u0000\u0000\u0000\u0000\u0000\u0000\u0000\u0000\u0000\u0000\u0000\u0000",
        "\u0000\u0000\u0000\u0000\u0000\u0000\u0000\u0000\u0000\u0000\u0000\u0000\u0000\u0000\u0000\u0000\u0000\u0000\u0000\u0000\u0000\u0000\u0000\u0000\u0000\u0000\u0000\u0000\u0000\u0000\u0000\u0000\u0000\u0000\u0000\u0000\u0000\u0000\u0000\u0000\u0000\u0000\u0000\u0000\u0000\u0000",
        "\u0000\u0000\u0000\u0000\u0000\u0000\u0000\u0000\u0000\u0000\u0000\u0000\u0000\u0000\u0000\u0000\u0000\u0000\u0000\u0000\u0000\u0000\u0000\u0000\u0000\u0000\u0000\u0000\u0000\u0000\u0000\u0000\u0000\u0000\u0000\u0000\u0000\u0000\u0000\u0000\u0000\u0000\u0000\u0000\u0000\u0000",
        "\u0000\u0000\u0000\u0000\u0000\u0000\u0000\u0000\u0000\u0000\u0000\u0000\u0000\u0000\u0000\u0000\u0000\u0000\u0000\u0000\u0000\u0000\u0000\u0000\u0000\u0000\u0000\u0000\u0000\u0000\u0000\u0000\u0000\u0000\u0000\u0000\u0000\u0000\u0000\u0000\u0000\u0000\u0000\u0000\u0000\u0000",
        "\u0000\u0000\u0000\u0000\u0000\u0000\u0000\u0000\u0000\u0000\u0000\u0000\u0000\u0000\u0000\u0000\u0000\u0000\u0000\u0000\u0000\u0000\u0000\u0000\u0000\u0000\u0000\u0000\u0000\u0000\u0000\u0000\u0000\u0000\u0000\u0000\u0000\u0000\u0000\u0000\u0000\u0000\u0000\u0000\u0000\u0000\u0000\u0000",
        "\u0000\u0000\u0000\u0000\u0000\u0000\u0000\u0000\u0000\u0000\u0000\u0000\u0000\u0000\u0000\u0000\u0000\u0000\u0000\u0000\u0000\u0000\u0000\u0000\u0000\u0000\u0000\u0000\u0000\u0000\u0000\u0000\u0000\u0000\u0000\u0000\u0000\u0000\u0000\u0000\u0000\u0000\u0000\u0000\u0000\u0000\u0000\u0000",
