{
  "AcquisitionMatrixPE": 110,
  "AcquisitionNumber": 1,
  "AcquisitionTime": "09:33:44.052500",
  "BandwidthPerPixelPhaseEncode": 26.35,
  "BaseResolution": 110,
  "CoilString": "C:HEA;HEP",
  "ConversionSoftware": "dcm2niix",
  "ConversionSoftwareVersion": "v1.0.20190410  GCC6.3.0",
  "DerivedVendorReportedEchoSpacing": 0.000690012,
  "DeviceSerialNumber": "35422",
  "DwellTime": 2.6e-06,
  "EchoTime": 0.03,
  "EffectiveEchoSpacing": 0.000345006,
  "FlipAngle": 85,
  "ImageComments": "Unaliased_MB4_PE4_LB",
  "ImageOrientationPatientDICOM": [0.999997, -0.000470616, -0.00236455, 2.07393e-10, 0.980763, -0.195201],
  "ImageType": [
    "ORIGINAL",
    "PRIMARY",
    "FMRI",
    "NONE",
    "MB",
    "ND",
    "MOSAIC"
],
  "ImagingFrequency": 123.178,
  "InPlanePhaseEncodingDirectionDICOM": "ROW",
  "InstitutionAddress": "kwanakro_599_C4F276_Seoul_KR_ZIP",
  "InstitutionName": "SNUBIC",
  "InstitutionalDepartmentName": "Department",
  "MRAcquisitionType": "2D",
  "MagneticFieldStrength": 3,
  "Manufacturer": "Siemens",
  "ManufacturersModelName": "TrioTim",
  "Modality": "MR",
  "MultibandAccelerationFactor": 4,
  "ParallelReductionFactorInPlane": 2,
  "PartialFourier": 1,
  "PatientPosition": "HFS",
  "PercentPhaseFOV": 100,
  "PhaseEncodingDirection": "i-",
  "PhaseEncodingSteps": 110,
  "PhaseResolution": 1,
  "PixelBandwidth": 1748,
  "ProcedureStepDescription": "SNU_SAVED",
  "ProtocolName": "WMGNG1_MB4_LR_SBRef",
  "PulseSequenceDetails": "%CustomerSeq%_cmrr_mbep2d_bold",
  "ReceiveCoilName": "32Ch_Head",
  "ReconMatrixPE": 110,
  "RefLinesPE": 32,
  "RepetitionTime": 1.5,
  "SAR": 0.109559,
  "ScanOptions": "FS",
  "ScanningSequence": "EP",
  "SequenceName": "epfid2d1_110",
  "SequenceVariant": "SK_SS",
  "SeriesDescription": "WMGNG1_MB4_LR_SBRef",
  "SeriesNumber": 13,
  "ShimSetting": [-4178, -29717, -2208, 561, -173, 483, -281, -136],
  "SliceThickness": 2.3,
  "SliceTiming": [0, 0.6575, 1.3175, 0.47, 1.13, 0.2825, 0.94, 0.095, 0.7525, 1.4125, 0.565, 1.2225, 0.3775, 1.035, 0.1875, 0.8475, 0, 0.6575, 1.3175, 0.47, 1.13, 0.2825, 0.94, 0.095, 0.7525, 1.4125, 0.565, 1.2225, 0.3775, 1.035, 0.1875, 0.8475, 0, 0.6575, 1.3175, 0.47, 1.13, 0.2825, 0.94, 0.095, 0.7525, 1.4125, 0.565, 1.2225, 0.3775, 1.035, 0.1875, 0.8475, 0, 0.6575, 1.3175, 0.47, 1.13, 0.2825, 0.94, 0.095, 0.7525, 1.4125, 0.565, 1.2225, 0.3775, 1.035, 0.1875, 0.8475],
  "SoftwareVersions": "syngo_MR_B17",
  "SpacingBetweenSlices": 2.3,
  "StationName": "MRC35422",
  "TaskName": "wmgng",
  "TotalReadoutTime": 0.0376057,
  "TxRefAmp": 336.124,
  "dcmmeta_affine": [
    [-2.327265977859497, 4.826598010154726e-10, -0.005545142572373152, 129.27432250976562],
    [0.0010952510638162494, 2.282503604888916, -0.4489602744579315, -103.7334213256836],
    [-0.005502960179001093, 0.454285204410553, 2.255748987197876, -91.61622619628906],
    [0.0, 0.0, 0.0, 1.0]
],
  "dcmmeta_reorient_transform": [
    [0.0, -1.0, 0.0, 109.0],
    [1.0, 0.0, 0.0, 0.0],
    [0.0, 0.0, 1.0, 0.0],
    [0.0, 0.0, 0.0, 1.0]
],
  "dcmmeta_shape": [110, 110, 64, 357],
  "dcmmeta_slice_dim": 2,
  "dcmmeta_version": 0.6,
  "global": {
    "const": {
      "AcquisitionMatrix": [0, 110, 110, 0],
      "AngioFlag": "N",
      "BitsAllocated": 16,
      "BitsStored": 12,
      "Columns": 880,
      "EchoNumbers": 1,
      "EchoTime": 30.0,
      "EchoTrainLength": 1,
      "FlipAngle": 85.0,
      "HighBit": 11,
      "ImageOrientationPatient": [0.9999970937001, -0.0004706157068, -0.0023645532802, 2.073929e-10, 0.98076332168627, -0.1952006834899],
      "ImagePositionPatient": [-1025.2716899939, -1023.4017151283, 134.91930672761],
      "ImageType": [
        "ORIGINAL",
        "PRIMARY",
        "FMRI",
        "NONE",
        "MB",
        "ND",
        "MOSAIC"
],
      "ImagedNucleus": "1H",
      "ImagingFrequency": 123.177541,
      "InPlanePhaseEncodingDirection": "ROW",
      "MRAcquisitionType": "2D",
      "MagneticFieldStrength": 3.0,
      "Manufacturer": "SIEMENS",
      "ManufacturerModelName": "TrioTim",
      "Modality": "MR",
      "NumberOfAverages": 1.0,
      "NumberOfPhaseEncodingSteps": 110,
      "PercentPhaseFieldOfView": 100.0,
      "PercentSampling": 100.0,
      "PerformedProcedureStepStartTime": "085622.593000",
      "PhotometricInterpretation": "MONOCHROME2",
      "PixelBandwidth": 1748.0,
      "PixelRepresentation": 0,
      "PixelSpacing": [2.3272726535797, 2.3272726535797],
      "ProtocolName": "WMGNG1_MB4_LR_SBRef",
      "ReferencedPerformedProcedureStepSequence": [
        {
          "ReferencedSOPClassUID": "1.2.840.10008.3.1.2.3.3",
          "ReferencedSOPInstanceUID": "1.3.12.2.1107.5.2.32.35422.30000019122023562262500000000"}
],
      "RepetitionTime": 1500.0,
      "Rows": 880,
      "SAR": 0.10955947957196,
      "SamplesPerPixel": 1,
      "ScanOptions": "FS",
      "ScanningSequence": "EP",
      "SequenceName": "epfid2d1_110",
      "SequenceVariant": [
        "SK",
        "SS"
],
      "SeriesDescription": "WMGNG1_MB4_LR_SBRef",
      "SeriesNumber": 13,
      "SeriesTime": "094059.890000",
      "SliceLocation": -69.916470790507,
      "SliceThickness": 2.2999999523163,
      "SmallestImagePixelValue": 0,
      "SoftwareVersions": "syngo MR B17",
      "SpacingBetweenSlices": 2.2999999665496,
      "SpecificCharacterSet": "ISO_IR 100",
      "StudyID": "1",
      "StudyTime": "085622.437000",
      "TransmitCoilName": "Body",
      "VariableFlipAngleFlag": "N",
      "WindowCenterWidthExplanation": "Algo1",
      "dBdt": 0.0},
    "slices": {}
  },
  "time": {
    "samples": {
      "AcquisitionNumber": [1, 2, 3, 4, 5, 6, 7, 8, 9, 10, 11, 12, 13, 14, 15, 16, 17, 18, 19, 20, 21, 22, 23, 24, 25, 26, 27, 28, 29, 30, 31, 32, 33, 34, 35, 36, 37, 38, 39, 40, 41, 42, 43, 44, 45, 46, 47, 48, 49, 50, 51, 52, 53, 54, 55, 56, 57, 58, 59, 60, 61, 62, 63, 64, 65, 66, 67, 68, 69, 70, 71, 72, 73, 74, 75, 76, 77, 78, 79, 80, 81, 82, 83, 84, 85, 86, 87, 88, 89, 90, 91, 92, 93, 94, 95, 96, 97, 98, 99, 100, 101, 102, 103, 104, 105, 106, 107, 108, 109, 110, 111, 112, 113, 114, 115, 116, 117, 118, 119, 120, 121, 122, 123, 124, 125, 126, 127, 128, 129, 130, 131, 132, 133, 134, 135, 136, 137, 138, 139, 140, 141, 142, 143, 144, 145, 146, 147, 148, 149, 150, 151, 152, 153, 154, 155, 156, 157, 158, 159, 160, 161, 162, 163, 164, 165, 166, 167, 168, 169, 170, 171, 172, 173, 174, 175, 176, 177, 178, 179, 180, 181, 182, 183, 184, 185, 186, 187, 188, 189, 190, 191, 192, 193, 194, 195, 196, 197, 198, 199, 200, 201, 202, 203, 204, 205, 206, 207, 208, 209, 210, 211, 212, 213, 214, 215, 216, 217, 218, 219, 220, 221, 222, 223, 224, 225, 226, 227, 228, 229, 230, 231, 232, 233, 234, 235, 236, 237, 238, 239, 240, 241, 242, 243, 244, 245, 246, 247, 248, 249, 250, 251, 252, 253, 254, 255, 256, 257, 258, 259, 260, 261, 262, 263, 264, 265, 266, 267, 268, 269, 270, 271, 272, 273, 274, 275, 276, 277, 278, 279, 280, 281, 282, 283, 284, 285, 286, 287, 288, 289, 290, 291, 292, 293, 294, 295, 296, 297, 298, 299, 300, 301, 302, 303, 304, 305, 306, 307, 308, 309, 310, 311, 312, 313, 314, 315, 316, 317, 318, 319, 320, 321, 322, 323, 324, 325, 326, 327, 328, 329, 330, 331, 332, 333, 334, 335, 336, 337, 338, 339, 340, 341, 342, 343, 344, 345, 346, 347, 348, 349, 350, 351, 352, 353, 354, 355, 356, 357],
      "AcquisitionTime": ["093344.052500", "093345.557500", "093347.065000", "093348.570000", "093350.077500", "093351.582500", "093353.087500", "093354.595000", "093356.100000", "093357.607500", "093359.112500", "093400.617500", "093402.125000", "093403.630000", "093405.137500", "093406.642500", "093408.150000", "093409.655000", "093411.160000", "093412.667500", "093414.172500", "093415.680000", "093417.185000", "093418.690000", "093420.197500", "093421.702500", "093423.210000", "093424.715000", "093426.220000", "093427.727500", "093429.232500", "093430.740000", "093432.245000", "093433.750000", "093435.257500", "093436.762500", "093438.270000", "093439.775000", "093441.282500", "093442.787500", "093444.292500", "093445.800000", "093447.305000", "093448.812500", "093450.317500", "093451.822500", "093453.330000", "093454.835000", "093456.342500", "093457.847500", "093459.352500", "093500.860000", "093502.365000", "093503.872500", "093505.377500", "093506.882500", "093508.390000", "093509.895000", "093511.402500", "093512.907500", "093514.415000", "093515.920000", "093517.425000", "093518.932500", "093520.437500", "093521.945000", "093523.450000", "093524.955000", "093526.462500", "093527.967500", "093529.475000", "093530.980000", "093532.485000", "093533.992500", "093535.497500", "093537.005000", "093538.510000", "093540.017500", "093541.522500", "093543.027500", "093544.535000", "093546.040000", "093547.547500", "093549.052500", "093550.557500", "093552.065000", "093553.570000", "093555.077500", "093556.582500", "093558.087500", "093559.595000", "093601.100000", "093602.607500", "093604.112500", "093605.617500", "093607.125000", "093608.630000", "093610.137500", "093611.642500", "093613.150000", "093614.655000", "093616.160000", "093617.667500", "093619.172500", "093620.680000", "093622.185000", "093623.690000", "093625.197500", "093626.702500", "093628.210000", "093629.715000", "093631.220000", "093632.727500", "093634.232500", "093635.740000", "093637.245000", "093638.750000", "093640.257500", "093641.762500", "093643.270000", "093644.775000", "093646.282500", "093647.787500", "093649.292500", "093650.800000", "093652.305000", "093653.812500", "093655.317500", "093656.822500", "093658.330000", "093659.835000", "093701.342500", "093702.847500", "093704.352500", "093705.860000", "093707.365000", "093708.872500", "093710.377500", "093711.882500", "093713.390000", "093714.895000", "093716.402500", "093717.907500", "093719.415000", "093720.920000", "093722.425000", "093723.932500", "093725.437500", "093726.945000", "093728.450000", "093729.955000", "093731.462500", "093732.967500", "093734.475000", "093735.980000", "093737.485000", "093738.992500", "093740.497500", "093742.005000", "093743.510000", "093745.017500", "093746.522500", "093748.027500", "093749.535000", "093751.040000", "093752.547500", "093754.052500", "093755.557500", "093757.065000", "093758.570000", "093800.077500", "093801.582500", "093803.087500", "093804.595000", "093806.100000", "093807.607500", "093809.112500", "093810.617500", "093812.125000", "093813.630000", "093815.137500", "093816.642500", "093818.150000", "093819.655000", "093821.160000", "093822.667500", "093824.172500", "093825.680000", "093827.185000", "093828.690000", "093830.197500", "093831.702500", "093833.210000", "093834.715000", "093836.220000", "093837.727500", "093839.232500", "093840.740000", "093842.245000", "093843.750000", "093845.257500", "093846.762500", "093848.270000", "093849.775000", "093851.282500", "093852.787500", "093854.292500", "093855.800000", "093857.305000", "093858.812500", "093900.317500", "093901.822500", "093903.330000", "093904.835000", "093906.342500", "093907.847500", "093909.352500", "093910.860000", "093912.365000", "093913.872500", "093915.377500", "093916.882500", "093918.390000", "093919.895000", "093921.402500", "093922.907500", "093924.415000", "093925.920000", "093927.425000", "093928.932500", "093930.437500", "093931.945000", "093933.450000", "093934.955000", "093936.462500", "093937.967500", "093939.475000", "093940.980000", "093942.485000", "093943.992500", "093945.497500", "093947.005000", "093948.510000", "093950.017500", "093951.522500", "093953.027500", "093954.535000", "093956.040000", "093957.547500", "093959.052500", "094000.557500", "094002.065000", "094003.570000", "094005.077500", "094006.582500", "094008.087500", "094009.595000", "094011.100000", "094012.607500", "094014.112500", "094015.617500", "094017.125000", "094018.630000", "094020.137500", "094021.642500", "094023.150000", "094024.655000", "094026.160000", "094027.667500", "094029.172500", "094030.680000", "094032.185000", "094033.690000", "094035.197500", "094036.702500", "094038.210000", "094039.715000", "094041.220000", "094042.727500", "094044.232500", "094045.740000", "094047.245000", "094048.750000", "094050.257500", "094051.762500", "094053.270000", "094054.775000", "094056.282500", "094057.787500", "094059.292500", "094100.800000", "094102.305000", "094103.812500", "094105.317500", "094106.822500", "094108.330000", "094109.835000", "094111.342500", "094112.847500", "094114.352500", "094115.860000", "094117.365000", "094118.872500", "094120.377500", "094121.882500", "094123.390000", "094124.895000", "094126.402500", "094127.907500", "094129.415000", "094130.920000", "094132.425000", "094133.932500", "094135.437500", "094136.945000", "094138.450000", "094139.955000", "094141.462500", "094142.967500", "094144.475000", "094145.980000", "094147.485000", "094148.992500", "094150.497500", "094152.005000", "094153.510000", "094155.017500", "094156.522500", "094158.027500", "094159.535000", "094201.040000", "094202.547500", "094204.052500", "094205.557500", "094207.065000", "094208.570000", "094210.077500", "094211.582500", "094213.087500", "094214.595000", "094216.100000", "094217.607500", "094219.112500", "094220.617500", "094222.125000", "094223.630000", "094225.137500", "094226.642500", "094228.150000", "094229.655000", "094231.160000", "094232.667500", "094234.172500", "094235.680000", "094237.185000", "094238.690000", "094240.197500"],
      "ContentTime": ["094059.890000", "094059.890000", "094059.890000", "094059.890000", "094059.906000", "094059.906000", "094059.906000", "094059.906000", "094059.906000", "094159.890000", "094159.890000", "094159.890000", "094159.890000", "094159.890000", "094159.890000", "094159.906000", "094159.906000", "094159.906000", "094159.906000", "094159.906000", "094159.906000", "094159.906000", "094159.906000", "094159.921000", "094159.921000", "094159.921000", "094159.921000", "094159.921000", "094159.921000", "094159.921000", "094159.921000", "094159.937000", "094159.937000", "094159.937000", "094159.937000", "094259.890000", "094259.890000", "094259.890000", "094259.906000", "094259.906000", "094259.906000", "094259.906000", "094259.906000", "094259.906000", "094259.906000", "094259.906000", "094259.906000", "094259.921000", "094259.921000", "094259.921000", "094259.921000", "094259.921000", "094259.921000", "094259.921000", "094259.921000", "094259.921000", "094259.937000", "094259.937000", "094259.937000", "094259.937000", "094259.937000", "094359.890000", "094359.890000", "094359.906000", "094359.906000", "094359.906000", "094359.906000", "094359.906000", "094359.906000", "094359.906000", "094359.906000", "094359.906000", "094359.921000", "094359.921000", "094359.921000", "094359.921000", "094359.921000", "094359.921000", "094359.921000", "094359.921000", "094359.921000", "094359.937000", "094359.937000", "094359.953000", "094359.953000", "094359.953000", "094359.953000", "094459.890000", "094459.890000", "094459.906000", "094459.906000", "094459.906000", "094459.906000", "094459.906000", "094459.906000", "094459.906000", "094459.906000", "094459.921000", "094459.921000", "094459.921000", "094459.921000", "094459.921000", "094459.921000", "094459.921000", "094459.921000", "094459.937000", "094459.937000", "094459.937000", "094459.937000", "094459.937000", "094459.937000", "094459.953000", "094459.953000", "094559.890000", "094559.890000", "094559.890000", "094559.890000", "094559.890000", "094559.890000", "094559.906000", "094559.906000", "094559.906000", "094559.906000", "094559.921000", "094559.921000", "094559.921000", "094559.921000", "094559.921000", "094559.921000", "094559.921000", "094559.921000", "094559.921000", "094559.937000", "094559.937000", "094559.937000", "094559.937000", "094559.937000", "094559.937000", "094559.937000", "094659.890000", "094659.890000", "094659.890000", "094659.890000", "094659.890000", "094659.890000", "094659.906000", "094659.906000", "094659.906000", "094659.906000", "094659.921000", "094659.921000", "094659.921000", "094659.921000", "094659.921000", "094659.921000", "094659.937000", "094659.937000", "094659.937000", "094659.937000", "094659.937000", "094659.937000", "094659.937000", "094659.953000", "094659.953000", "094659.953000", "094759.890000", "094759.890000", "094759.890000", "094759.890000", "094759.890000", "094759.890000", "094759.906000", "094759.906000", "094759.906000", "094759.906000", "094759.906000", "094759.906000", "094759.906000", "094759.906000", "094759.906000", "094759.921000", "094759.921000", "094759.921000", "094759.921000", "094759.921000", "094759.921000", "094759.921000", "094759.921000", "094759.937000", "094759.937000", "094759.937000", "094859.890000", "094859.890000", "094859.890000", "094859.890000", "094859.890000", "094859.890000", "094859.906000", "094859.906000", "094859.906000", "094859.906000", "094859.906000", "094859.906000", "094859.906000", "094859.906000", "094859.906000", "094859.921000", "094859.921000", "094859.921000", "094859.921000", "094859.921000", "094859.921000", "094859.921000", "094859.921000", "094859.937000", "094859.937000", "094859.937000", "094959.890000", "094959.890000", "094959.890000", "094959.906000", "094959.906000", "094959.906000", "094959.906000", "094959.906000", "094959.906000", "094959.906000", "094959.906000", "094959.921000", "094959.921000", "094959.921000", "094959.921000", "094959.921000", "094959.937000", "094959.937000", "094959.937000", "094959.937000", "094959.937000", "094959.937000", "094959.937000", "094959.937000", "094959.937000", "094959.953000", "095059.890000", "095059.890000", "095059.890000", "095059.890000", "095059.890000", "095059.890000", "095059.906000", "095059.906000", "095059.906000", "095059.906000", "095059.906000", "095059.921000", "095059.921000", "095059.921000", "095059.921000", "095059.921000", "095059.921000", "095059.921000", "095059.921000", "095059.921000", "095059.937000", "095059.953000", "095059.953000", "095059.953000", "095059.953000", "095059.953000", "095159.890000", "095159.890000", "095159.890000", "095159.890000", "095159.890000", "095159.890000", "095159.890000", "095159.906000", "095159.906000", "095159.906000", "095159.906000", "095159.906000", "095159.906000", "095159.906000", "095159.906000", "095159.921000", "095159.921000", "095159.921000", "095159.921000", "095159.921000", "095159.921000", "095159.921000", "095159.921000", "095159.921000", "095159.937000", "095159.937000", "095159.937000", "095259.890000", "095259.890000", "095259.890000", "095259.890000", "095259.890000", "095259.890000", "095259.906000", "095259.906000", "095259.906000", "095259.906000", "095259.906000", "095259.906000", "095259.906000", "095259.906000", "095259.906000", "095259.921000", "095259.921000", "095259.921000", "095259.921000", "095259.921000", "095259.921000", "095259.921000", "095259.937000", "095259.937000", "095259.937000", "095259.937000", "095359.890000", "095359.890000", "095359.890000", "095359.890000", "095359.890000", "095359.890000", "095359.906000", "095359.906000", "095359.906000", "095359.906000", "095359.906000", "095359.906000", "095359.906000", "095359.906000", "095359.906000", "095359.921000", "095359.921000", "095359.921000", "095359.921000", "095359.921000", "095359.921000", "095359.921000", "095359.921000", "095359.921000", "095359.937000", "095420.593000", "095420.593000", "095420.593000", "095420.593000", "095420.593000", "095420.593000", "095420.609000", "095420.609000", "095420.609000", "095420.609000"],
      "DataSetTrailingPadding": [
        "\u0000\u0000\u0000\u0000\u0000\u0000\u0000\u0000\u0000\u0000\u0000\u0000\u0000\u0000\u0000\u0000\u0000\u0000\u0000\u0000\u0000\u0000\u0000\u0000",
        "\u0000\u0000\u0000\u0000\u0000\u0000\u0000\u0000\u0000\u0000\u0000\u0000\u0000\u0000\u0000\u0000\u0000\u0000\u0000\u0000\u0000\u0000\u0000\u0000",
        "\u0000\u0000\u0000\u0000\u0000\u0000\u0000\u0000\u0000\u0000\u0000\u0000\u0000\u0000\u0000\u0000\u0000\u0000\u0000\u0000\u0000\u0000\u0000\u0000",
        "\u0000\u0000\u0000\u0000\u0000\u0000\u0000\u0000\u0000\u0000\u0000\u0000\u0000\u0000\u0000\u0000\u0000\u0000\u0000\u0000\u0000\u0000\u0000\u0000\u0000\u0000",
        "\u0000\u0000\u0000\u0000\u0000\u0000\u0000\u0000\u0000\u0000\u0000\u0000\u0000\u0000\u0000\u0000\u0000\u0000\u0000\u0000\u0000\u0000\u0000\u0000\u0000\u0000",
        "\u0000\u0000\u0000\u0000\u0000\u0000\u0000\u0000\u0000\u0000\u0000\u0000\u0000\u0000\u0000\u0000\u0000\u0000\u0000\u0000\u0000\u0000\u0000\u0000",
        "\u0000\u0000\u0000\u0000\u0000\u0000\u0000\u0000\u0000\u0000\u0000\u0000\u0000\u0000\u0000\u0000\u0000\u0000\u0000\u0000\u0000\u0000\u0000\u0000",
        "\u0000\u0000\u0000\u0000\u0000\u0000\u0000\u0000\u0000\u0000\u0000\u0000\u0000\u0000\u0000\u0000\u0000\u0000\u0000\u0000\u0000\u0000\u0000\u0000",
        "\u0000\u0000\u0000\u0000\u0000\u0000\u0000\u0000\u0000\u0000\u0000\u0000\u0000\u0000\u0000\u0000\u0000\u0000\u0000\u0000\u0000\u0000\u0000\u0000\u0000\u0000",
        "\u0000\u0000\u0000\u0000\u0000\u0000\u0000\u0000\u0000\u0000\u0000\u0000\u0000\u0000\u0000\u0000\u0000\u0000\u0000\u0000\u0000\u0000",
        "\u0000\u0000\u0000\u0000\u0000\u0000\u0000\u0000\u0000\u0000\u0000\u0000\u0000\u0000\u0000\u0000\u0000\u0000\u0000\u0000",
        "\u0000\u0000\u0000\u0000\u0000\u0000\u0000\u0000\u0000\u0000\u0000\u0000\u0000\u0000\u0000\u0000\u0000\u0000\u0000\u0000",
        "\u0000\u0000\u0000\u0000\u0000\u0000\u0000\u0000\u0000\u0000\u0000\u0000\u0000\u0000\u0000\u0000\u0000\u0000\u0000\u0000",
        "\u0000\u0000\u0000\u0000\u0000\u0000\u0000\u0000\u0000\u0000\u0000\u0000\u0000\u0000\u0000\u0000\u0000\u0000\u0000\u0000\u0000\u0000",
        "\u0000\u0000\u0000\u0000\u0000\u0000\u0000\u0000\u0000\u0000\u0000\u0000\u0000\u0000\u0000\u0000\u0000\u0000\u0000\u0000\u0000\u0000",
        "\u0000\u0000\u0000\u0000\u0000\u0000\u0000\u0000\u0000\u0000\u0000\u0000\u0000\u0000\u0000\u0000\u0000\u0000\u0000\u0000",
        "\u0000\u0000\u0000\u0000\u0000\u0000\u0000\u0000\u0000\u0000\u0000\u0000\u0000\u0000\u0000\u0000\u0000\u0000\u0000\u0000\u0000\u0000",
        "\u0000\u0000\u0000\u0000\u0000\u0000\u0000\u0000\u0000\u0000\u0000\u0000\u0000\u0000\u0000\u0000\u0000\u0000\u0000\u0000\u0000\u0000",
        "\u0000\u0000\u0000\u0000\u0000\u0000\u0000\u0000\u0000\u0000\u0000\u0000\u0000\u0000\u0000\u0000\u0000\u0000\u0000\u0000\u0000\u0000",
        "\u0000\u0000\u0000\u0000\u0000\u0000\u0000\u0000\u0000\u0000\u0000\u0000\u0000\u0000\u0000\u0000\u0000\u0000\u0000\u0000\u0000\u0000",
        "\u0000\u0000\u0000\u0000\u0000\u0000\u0000\u0000\u0000\u0000\u0000\u0000\u0000\u0000\u0000\u0000\u0000\u0000\u0000\u0000",
        "\u0000\u0000\u0000\u0000\u0000\u0000\u0000\u0000\u0000\u0000\u0000\u0000\u0000\u0000\u0000\u0000\u0000\u0000\u0000\u0000",
        "\u0000\u0000\u0000\u0000\u0000\u0000\u0000\u0000\u0000\u0000\u0000\u0000\u0000\u0000\u0000\u0000\u0000\u0000\u0000\u0000\u0000\u0000\u0000\u0000",
        "\u0000\u0000\u0000\u0000\u0000\u0000\u0000\u0000\u0000\u0000\u0000\u0000\u0000\u0000\u0000\u0000\u0000\u0000\u0000\u0000\u0000\u0000",
        "\u0000\u0000\u0000\u0000\u0000\u0000\u0000\u0000\u0000\u0000\u0000\u0000\u0000\u0000\u0000\u0000\u0000\u0000\u0000\u0000\u0000\u0000",
        "\u0000\u0000\u0000\u0000\u0000\u0000\u0000\u0000\u0000\u0000\u0000\u0000\u0000\u0000\u0000\u0000\u0000\u0000\u0000\u0000",
        "\u0000\u0000\u0000\u0000\u0000\u0000\u0000\u0000\u0000\u0000\u0000\u0000\u0000\u0000\u0000\u0000\u0000\u0000\u0000\u0000",
        "\u0000\u0000\u0000\u0000\u0000\u0000\u0000\u0000\u0000\u0000\u0000\u0000\u0000\u0000\u0000\u0000\u0000\u0000\u0000\u0000\u0000\u0000",
        "\u0000\u0000\u0000\u0000\u0000\u0000\u0000\u0000\u0000\u0000\u0000\u0000\u0000\u0000\u0000\u0000\u0000\u0000\u0000\u0000\u0000\u0000",
        "\u0000\u0000\u0000\u0000\u0000\u0000\u0000\u0000\u0000\u0000\u0000\u0000\u0000\u0000\u0000\u0000\u0000\u0000\u0000\u0000\u0000\u0000",
        "\u0000\u0000\u0000\u0000\u0000\u0000\u0000\u0000\u0000\u0000\u0000\u0000\u0000\u0000\u0000\u0000\u0000\u0000\u0000\u0000",
        "\u0000\u0000\u0000\u0000\u0000\u0000\u0000\u0000\u0000\u0000\u0000\u0000\u0000\u0000\u0000\u0000\u0000\u0000\u0000\u0000",
        "\u0000\u0000\u0000\u0000\u0000\u0000\u0000\u0000\u0000\u0000\u0000\u0000\u0000\u0000\u0000\u0000\u0000\u0000\u0000\u0000\u0000\u0000",
        "\u0000\u0000\u0000\u0000\u0000\u0000\u0000\u0000\u0000\u0000\u0000\u0000\u0000\u0000\u0000\u0000\u0000\u0000\u0000\u0000\u0000\u0000",
        "\u0000\u0000\u0000\u0000\u0000\u0000\u0000\u0000\u0000\u0000\u0000\u0000\u0000\u0000\u0000\u0000\u0000\u0000\u0000\u0000",
        "\u0000\u0000\u0000\u0000\u0000\u0000\u0000\u0000\u0000\u0000\u0000\u0000\u0000\u0000\u0000\u0000\u0000\u0000\u0000\u0000",
        "\u0000\u0000\u0000\u0000\u0000\u0000\u0000\u0000\u0000\u0000\u0000\u0000\u0000\u0000\u0000\u0000\u0000\u0000\u0000\u0000",
        "\u0000\u0000\u0000\u0000\u0000\u0000\u0000\u0000\u0000\u0000\u0000\u0000\u0000\u0000\u0000\u0000\u0000\u0000\u0000\u0000\u0000\u0000",
        "\u0000\u0000\u0000\u0000\u0000\u0000\u0000\u0000\u0000\u0000\u0000\u0000\u0000\u0000\u0000\u0000\u0000\u0000\u0000\u0000\u0000\u0000\u0000\u0000",
        "\u0000\u0000\u0000\u0000\u0000\u0000\u0000\u0000\u0000\u0000\u0000\u0000\u0000\u0000\u0000\u0000\u0000\u0000\u0000\u0000",
        "\u0000\u0000\u0000\u0000\u0000\u0000\u0000\u0000\u0000\u0000\u0000\u0000\u0000\u0000\u0000\u0000\u0000\u0000\u0000\u0000",
        "\u0000\u0000\u0000\u0000\u0000\u0000\u0000\u0000\u0000\u0000\u0000\u0000\u0000\u0000\u0000\u0000\u0000\u0000\u0000\u0000",
        "\u0000\u0000\u0000\u0000\u0000\u0000\u0000\u0000\u0000\u0000\u0000\u0000\u0000\u0000\u0000\u0000\u0000\u0000\u0000\u0000\u0000\u0000",
        "\u0000\u0000\u0000\u0000\u0000\u0000\u0000\u0000\u0000\u0000\u0000\u0000\u0000\u0000\u0000\u0000\u0000\u0000\u0000\u0000\u0000\u0000",
        "\u0000\u0000\u0000\u0000\u0000\u0000\u0000\u0000\u0000\u0000\u0000\u0000\u0000\u0000\u0000\u0000\u0000\u0000\u0000\u0000",
        "\u0000\u0000\u0000\u0000\u0000\u0000\u0000\u0000\u0000\u0000\u0000\u0000\u0000\u0000\u0000\u0000\u0000\u0000\u0000\u0000",
        "\u0000\u0000\u0000\u0000\u0000\u0000\u0000\u0000\u0000\u0000\u0000\u0000\u0000\u0000\u0000\u0000\u0000\u0000\u0000\u0000",
        "\u0000\u0000\u0000\u0000\u0000\u0000\u0000\u0000\u0000\u0000\u0000\u0000\u0000\u0000\u0000\u0000\u0000\u0000\u0000\u0000\u0000\u0000",
        "\u0000\u0000\u0000\u0000\u0000\u0000\u0000\u0000\u0000\u0000\u0000\u0000\u0000\u0000\u0000\u0000\u0000\u0000\u0000\u0000\u0000\u0000",
        "\u0000\u0000\u0000\u0000\u0000\u0000\u0000\u0000\u0000\u0000\u0000\u0000\u0000\u0000\u0000\u0000\u0000\u0000\u0000\u0000",
        "\u0000\u0000\u0000\u0000\u0000\u0000\u0000\u0000\u0000\u0000\u0000\u0000\u0000\u0000\u0000\u0000\u0000\u0000\u0000\u0000",
        "\u0000\u0000\u0000\u0000\u0000\u0000\u0000\u0000\u0000\u0000\u0000\u0000\u0000\u0000\u0000\u0000\u0000\u0000\u0000\u0000",
        "\u0000\u0000\u0000\u0000\u0000\u0000\u0000\u0000\u0000\u0000\u0000\u0000\u0000\u0000\u0000\u0000\u0000\u0000\u0000\u0000\u0000\u0000",
        "\u0000\u0000\u0000\u0000\u0000\u0000\u0000\u0000\u0000\u0000\u0000\u0000\u0000\u0000\u0000\u0000\u0000\u0000\u0000\u0000\u0000\u0000",
        "\u0000\u0000\u0000\u0000\u0000\u0000\u0000\u0000\u0000\u0000\u0000\u0000\u0000\u0000\u0000\u0000\u0000\u0000\u0000\u0000",
        "\u0000\u0000\u0000\u0000\u0000\u0000\u0000\u0000\u0000\u0000\u0000\u0000\u0000\u0000\u0000\u0000\u0000\u0000\u0000\u0000",
        "\u0000\u0000\u0000\u0000\u0000\u0000\u0000\u0000\u0000\u0000\u0000\u0000\u0000\u0000\u0000\u0000",
        "\u0000\u0000\u0000\u0000\u0000\u0000\u0000\u0000\u0000\u0000\u0000\u0000\u0000\u0000\u0000\u0000\u0000\u0000",
        "\u0000\u0000\u0000\u0000\u0000\u0000\u0000\u0000\u0000\u0000\u0000\u0000\u0000\u0000\u0000\u0000",
        "\u0000\u0000\u0000\u0000\u0000\u0000\u0000\u0000\u0000\u0000\u0000\u0000\u0000\u0000\u0000\u0000",
        "\u0000\u0000\u0000\u0000\u0000\u0000\u0000\u0000\u0000\u0000\u0000\u0000\u0000\u0000\u0000\u0000",
        "\u0000\u0000\u0000\u0000\u0000\u0000\u0000\u0000\u0000\u0000\u0000\u0000\u0000\u0000\u0000\u0000",
        "\u0000\u0000\u0000\u0000\u0000\u0000\u0000\u0000\u0000\u0000\u0000\u0000\u0000\u0000\u0000\u0000\u0000\u0000",
        "\u0000\u0000\u0000\u0000\u0000\u0000\u0000\u0000\u0000\u0000\u0000\u0000\u0000\u0000\u0000\u0000",
        "\u0000\u0000\u0000\u0000\u0000\u0000\u0000\u0000\u0000\u0000\u0000\u0000\u0000\u0000\u0000\u0000",
        "\u0000\u0000\u0000\u0000\u0000\u0000\u0000\u0000\u0000\u0000\u0000\u0000\u0000\u0000\u0000\u0000",
        "\u0000\u0000\u0000\u0000\u0000\u0000\u0000\u0000\u0000\u0000\u0000\u0000\u0000\u0000\u0000\u0000",
        "\u0000\u0000\u0000\u0000\u0000\u0000\u0000\u0000\u0000\u0000\u0000\u0000\u0000\u0000\u0000\u0000\u0000\u0000",
        "\u0000\u0000\u0000\u0000\u0000\u0000\u0000\u0000\u0000\u0000\u0000\u0000\u0000\u0000\u0000\u0000",
        "\u0000\u0000\u0000\u0000\u0000\u0000\u0000\u0000\u0000\u0000\u0000\u0000\u0000\u0000\u0000\u0000",
        "\u0000\u0000\u0000\u0000\u0000\u0000\u0000\u0000\u0000\u0000\u0000\u0000\u0000\u0000\u0000\u0000",
        "\u0000\u0000\u0000\u0000\u0000\u0000\u0000\u0000\u0000\u0000\u0000\u0000\u0000\u0000\u0000\u0000",
        "\u0000\u0000\u0000\u0000\u0000\u0000\u0000\u0000\u0000\u0000\u0000\u0000\u0000\u0000\u0000\u0000\u0000\u0000\u0000\u0000",
        "\u0000\u0000\u0000\u0000\u0000\u0000\u0000\u0000\u0000\u0000\u0000\u0000\u0000\u0000\u0000\u0000",
        "\u0000\u0000\u0000\u0000\u0000\u0000\u0000\u0000\u0000\u0000\u0000\u0000\u0000\u0000\u0000\u0000",
        "\u0000\u0000\u0000\u0000\u0000\u0000\u0000\u0000\u0000\u0000\u0000\u0000\u0000\u0000\u0000\u0000",
        "\u0000\u0000\u0000\u0000\u0000\u0000\u0000\u0000\u0000\u0000\u0000\u0000\u0000\u0000\u0000\u0000",
        "\u0000\u0000\u0000\u0000\u0000\u0000\u0000\u0000\u0000\u0000\u0000\u0000\u0000\u0000\u0000\u0000\u0000\u0000\u0000\u0000",
