{
  "AcquisitionMatrixPE": 110,
  "AcquisitionNumber": 1,
  "AcquisitionTime": "09:36:33.705000",
  "BandwidthPerPixelPhaseEncode": 26.35,
  "BaseResolution": 110,
  "CoilString": "C:HEA;HEP",
  "ConversionSoftware": "dcm2niix",
  "ConversionSoftwareVersion": "v1.0.20190410  GCC6.3.0",
  "DerivedVendorReportedEchoSpacing": 0.000690012,
  "DeviceSerialNumber": "35422",
  "DwellTime": 2.6e-06,
  "EchoTime": 0.03,
  "EffectiveEchoSpacing": 0.000345006,
  "FlipAngle": 85,
  "ImageComments": "Unaliased_MB4_PE4_LB",
  "ImageOrientationPatientDICOM": [0.999782, -0.00312118, 0.0206403, 1.46154e-10, 0.988759, 0.149518],
  "ImageType": [
    "ORIGINAL",
    "PRIMARY",
    "FMRI",
    "NONE",
    "MB",
    "ND",
    "MOSAIC"
],
  "ImagingFrequency": 123.177,
  "InPlanePhaseEncodingDirectionDICOM": "ROW",
  "InstitutionAddress": "kwanakro_599_C6F879_Seoul_KR_ZIP",
  "InstitutionName": "SNUBIC",
  "InstitutionalDepartmentName": "Department",
  "MRAcquisitionType": "2D",
  "MagneticFieldStrength": 3,
  "Manufacturer": "Siemens",
  "ManufacturersModelName": "TrioTim",
  "Modality": "MR",
  "MultibandAccelerationFactor": 4,
  "ParallelReductionFactorInPlane": 2,
  "PartialFourier": 1,
  "PatientPosition": "HFS",
  "PercentPhaseFOV": 100,
  "PhaseEncodingDirection": "i-",
  "PhaseEncodingSteps": 110,
  "PhaseResolution": 1,
  "PixelBandwidth": 1748,
  "ProcedureStepDescription": "SNU_SAVED",
  "ProtocolName": "WMGNG2_MB4_LR_SBRef",
  "PulseSequenceDetails": "%CustomerSeq%_cmrr_mbep2d_bold",
  "ReceiveCoilName": "32Ch_Head",
  "ReconMatrixPE": 110,
  "RefLinesPE": 32,
  "RepetitionTime": 1.5,
  "SAR": 0.138385,
  "ScanOptions": "FS",
  "ScanningSequence": "EP",
  "SequenceName": "epfid2d1_110",
  "SequenceVariant": "SK_SS",
  "SeriesDescription": "WMGNG2_MB4_LR_SBRef",
  "SeriesNumber": 20,
  "ShimSetting": [-4147, -29805, -2249, 594, -218, 323, 17, 10],
  "SliceThickness": 2.3,
  "SliceTiming": [0, 0.6575, 1.3175, 0.47, 1.1275, 0.2825, 0.94, 0.0925, 0.7525, 1.41, 0.565, 1.2225, 0.375, 1.035, 0.1875, 0.845, 0, 0.6575, 1.3175, 0.47, 1.1275, 0.2825, 0.94, 0.0925, 0.7525, 1.41, 0.565, 1.2225, 0.375, 1.035, 0.1875, 0.845, 0, 0.6575, 1.3175, 0.47, 1.1275, 0.2825, 0.94, 0.0925, 0.7525, 1.41, 0.565, 1.2225, 0.375, 1.035, 0.1875, 0.845, 0, 0.6575, 1.3175, 0.47, 1.1275, 0.2825, 0.94, 0.0925, 0.7525, 1.41, 0.565, 1.2225, 0.375, 1.035, 0.1875, 0.845],
  "SoftwareVersions": "syngo_MR_B17",
  "SpacingBetweenSlices": 2.3,
  "StationName": "MRC35422",
  "TaskName": "wmgng",
  "TotalReadoutTime": 0.0376057,
  "TxRefAmp": 324.373,
  "dcmmeta_affine": [
    [-2.326765537261963, 3.4013997174398014e-10, 0.04801241308450699, 127.84754180908203],
    [0.007263843435794115, 2.3011116981506348, 0.34381648898124695, -117.37003326416016],
    [0.04803561791777611, -0.3479691743850708, 2.2736501693725586, -30.57217025756836],
    [0.0, 0.0, 0.0, 1.0]
],
  "dcmmeta_reorient_transform": [
    [0.0, -1.0, 0.0, 109.0],
    [1.0, 0.0, 0.0, 0.0],
    [0.0, 0.0, 1.0, 0.0],
    [0.0, 0.0, 0.0, 1.0]
],
  "dcmmeta_shape": [110, 110, 64, 357],
  "dcmmeta_slice_dim": 2,
  "dcmmeta_version": 0.6,
  "global": {
    "const": {
      "AcquisitionMatrix": [0, 110, 110, 0],
      "AngioFlag": "N",
      "BitsAllocated": 16,
      "BitsStored": 12,
      "Columns": 880,
      "EchoNumbers": 1,
      "EchoTime": 30.0,
      "EchoTrainLength": 1,
      "FlipAngle": 85.0,
      "HighBit": 11,
      "ImageOrientationPatient": [0.99978209425699, -0.003121182778, 0.02064030574332, 1.461539e-10, 0.98875900245041, 0.14951800919377],
      "ImagePositionPatient": [-1023.6522720587, -1016.5826137417, -220.96265570062],
      "ImageType": [
        "ORIGINAL",
        "PRIMARY",
        "FMRI",
        "NONE",
        "MB",
        "ND",
        "MOSAIC"
],
      "ImagedNucleus": "1H",
      "ImagingFrequency": 123.177416,
      "InPlanePhaseEncodingDirection": "ROW",
      "MRAcquisitionType": "2D",
      "MagneticFieldStrength": 3.0,
      "Manufacturer": "SIEMENS",
      "ManufacturerModelName": "TrioTim",
      "Modality": "MR",
      "NumberOfAverages": 1.0,
      "NumberOfPhaseEncodingSteps": 110,
      "PercentPhaseFieldOfView": 100.0,
      "PercentSampling": 100.0,
      "PerformedProcedureStepStartTime": "084922.812000",
      "PhotometricInterpretation": "MONOCHROME2",
      "PixelBandwidth": 1748.0,
      "PixelRepresentation": 0,
      "PixelSpacing": [2.3272726535797, 2.3272726535797],
      "ProtocolName": "WMGNG2_MB4_LR_SBRef",
      "ReferencedPerformedProcedureStepSequence": [
        {
          "ReferencedSOPClassUID": "1.2.840.10008.3.1.2.3.3",
          "ReferencedSOPInstanceUID": "1.3.12.2.1107.5.2.32.35422.30000020051323492284300000000"}
],
      "RepetitionTime": 1500.0,
      "Rows": 880,
      "SAR": 0.13838511000715,
      "SamplesPerPixel": 1,
      "ScanOptions": "FS",
      "ScanningSequence": "EP",
      "SequenceName": "epfid2d1_110",
      "SequenceVariant": [
        "SK",
        "SS"
],
      "SeriesDescription": "WMGNG2_MB4_LR_SBRef",
      "SeriesNumber": 20,
      "SeriesTime": "094849.968000",
      "SliceLocation": -45.098218351868,
      "SliceThickness": 2.2999999523163,
      "SmallestImagePixelValue": 0,
      "SoftwareVersions": "syngo MR B17",
      "SpacingBetweenSlices": 2.3000000578612,
      "SpecificCharacterSet": "ISO_IR 100",
      "StudyID": "1",
      "StudyTime": "084922.687000",
      "TransmitCoilName": "Body",
      "VariableFlipAngleFlag": "N",
      "WindowCenterWidthExplanation": "Algo1",
      "dBdt": 0.0},
    "slices": {}
  },
  "time": {
    "samples": {
      "AcquisitionNumber": [1, 2, 3, 4, 5, 6, 7, 8, 9, 10, 11, 12, 13, 14, 15, 16, 17, 18, 19, 20, 21, 22, 23, 24, 25, 26, 27, 28, 29, 30, 31, 32, 33, 34, 35, 36, 37, 38, 39, 40, 41, 42, 43, 44, 45, 46, 47, 48, 49, 50, 51, 52, 53, 54, 55, 56, 57, 58, 59, 60, 61, 62, 63, 64, 65, 66, 67, 68, 69, 70, 71, 72, 73, 74, 75, 76, 77, 78, 79, 80, 81, 82, 83, 84, 85, 86, 87, 88, 89, 90, 91, 92, 93, 94, 95, 96, 97, 98, 99, 100, 101, 102, 103, 104, 105, 106, 107, 108, 109, 110, 111, 112, 113, 114, 115, 116, 117, 118, 119, 120, 121, 122, 123, 124, 125, 126, 127, 128, 129, 130, 131, 132, 133, 134, 135, 136, 137, 138, 139, 140, 141, 142, 143, 144, 145, 146, 147, 148, 149, 150, 151, 152, 153, 154, 155, 156, 157, 158, 159, 160, 161, 162, 163, 164, 165, 166, 167, 168, 169, 170, 171, 172, 173, 174, 175, 176, 177, 178, 179, 180, 181, 182, 183, 184, 185, 186, 187, 188, 189, 190, 191, 192, 193, 194, 195, 196, 197, 198, 199, 200, 201, 202, 203, 204, 205, 206, 207, 208, 209, 210, 211, 212, 213, 214, 215, 216, 217, 218, 219, 220, 221, 222, 223, 224, 225, 226, 227, 228, 229, 230, 231, 232, 233, 234, 235, 236, 237, 238, 239, 240, 241, 242, 243, 244, 245, 246, 247, 248, 249, 250, 251, 252, 253, 254, 255, 256, 257, 258, 259, 260, 261, 262, 263, 264, 265, 266, 267, 268, 269, 270, 271, 272, 273, 274, 275, 276, 277, 278, 279, 280, 281, 282, 283, 284, 285, 286, 287, 288, 289, 290, 291, 292, 293, 294, 295, 296, 297, 298, 299, 300, 301, 302, 303, 304, 305, 306, 307, 308, 309, 310, 311, 312, 313, 314, 315, 316, 317, 318, 319, 320, 321, 322, 323, 324, 325, 326, 327, 328, 329, 330, 331, 332, 333, 334, 335, 336, 337, 338, 339, 340, 341, 342, 343, 344, 345, 346, 347, 348, 349, 350, 351, 352, 353, 354, 355, 356, 357],
      "AcquisitionTime": ["093633.705000", "093635.210000", "093636.717500", "093638.222500", "093639.727500", "093641.235000", "093642.740000", "093644.247500", "093645.752500", "093647.257500", "093648.765000", "093650.270000", "093651.777500", "093653.282500", "093654.787500", "093656.295000", "093657.800000", "093659.307500", "093700.812500", "093702.320000", "093703.825000", "093705.330000", "093706.837500", "093708.342500", "093709.850000", "093711.355000", "093712.860000", "093714.367500", "093715.872500", "093717.380000", "093718.885000", "093720.390000", "093721.897500", "093723.402500", "093724.910000", "093726.415000", "093727.920000", "093729.427500", "093730.932500", "093732.440000", "093733.945000", "093735.452500", "093736.957500", "093738.462500", "093739.970000", "093741.475000", "093742.982500", "093744.487500", "093745.992500", "093747.500000", "093749.005000", "093750.512500", "093752.017500", "093753.522500", "093755.030000", "093756.535000", "093758.042500", "093759.547500", "093801.055000", "093802.560000", "093804.065000", "093805.572500", "093807.077500", "093808.585000", "093810.090000", "093811.595000", "093813.102500", "093814.607500", "093816.115000", "093817.620000", "093819.125000", "093820.632500", "093822.137500", "093823.645000", "093825.150000", "093826.655000", "093828.162500", "093829.667500", "093831.175000", "093832.680000", "093834.187500", "093835.692500", "093837.197500", "093838.705000", "093840.210000", "093841.717500", "093843.222500", "093844.727500", "093846.235000", "093847.740000", "093849.247500", "093850.752500", "093852.257500", "093853.765000", "093855.270000", "093856.777500", "093858.282500", "093859.787500", "093901.295000", "093902.800000", "093904.307500", "093905.812500", "093907.320000", "093908.825000", "093910.330000", "093911.837500", "093913.342500", "093914.850000", "093916.355000", "093917.860000", "093919.367500", "093920.872500", "093922.380000", "093923.885000", "093925.390000", "093926.897500", "093928.402500", "093929.910000", "093931.415000", "093932.920000", "093934.427500", "093935.932500", "093937.440000", "093938.945000", "093940.452500", "093941.957500", "093943.462500", "093944.970000", "093946.475000", "093947.982500", "093949.487500", "093950.992500", "093952.500000", "093954.005000", "093955.512500", "093957.017500", "093958.522500", "094000.030000", "094001.535000", "094003.042500", "094004.547500", "094006.055000", "094007.560000", "094009.065000", "094010.572500", "094012.077500", "094013.585000", "094015.090000", "094016.595000", "094018.102500", "094019.607500", "094021.115000", "094022.620000", "094024.125000", "094025.632500", "094027.137500", "094028.645000", "094030.150000", "094031.655000", "094033.162500", "094034.667500", "094036.175000", "094037.680000", "094039.187500", "094040.692500", "094042.197500", "094043.705000", "094045.210000", "094046.717500", "094048.222500", "094049.727500", "094051.235000", "094052.740000", "094054.247500", "094055.752500", "094057.257500", "094058.765000", "094100.270000", "094101.777500", "094103.282500", "094104.787500", "094106.295000", "094107.800000", "094109.307500", "094110.812500", "094112.320000", "094113.825000", "094115.330000", "094116.837500", "094118.342500", "094119.850000", "094121.355000", "094122.860000", "094124.367500", "094125.872500", "094127.380000", "094128.885000", "094130.390000", "094131.897500", "094133.402500", "094134.910000", "094136.415000", "094137.920000", "094139.427500", "094140.932500", "094142.440000", "094143.945000", "094145.452500", "094146.957500", "094148.462500", "094149.970000", "094151.475000", "094152.982500", "094154.487500", "094155.992500", "094157.500000", "094159.005000", "094200.512500", "094202.017500", "094203.522500", "094205.030000", "094206.535000", "094208.042500", "094209.547500", "094211.055000", "094212.560000", "094214.065000", "094215.572500", "094217.077500", "094218.585000", "094220.090000", "094221.595000", "094223.102500", "094224.607500", "094226.115000", "094227.620000", "094229.125000", "094230.632500", "094232.137500", "094233.645000", "094235.150000", "094236.655000", "094238.162500", "094239.667500", "094241.175000", "094242.680000", "094244.187500", "094245.692500", "094247.197500", "094248.705000", "094250.210000", "094251.717500", "094253.222500", "094254.727500", "094256.235000", "094257.740000", "094259.247500", "094300.752500", "094302.257500", "094303.765000", "094305.270000", "094306.777500", "094308.282500", "094309.787500", "094311.295000", "094312.800000", "094314.307500", "094315.812500", "094317.320000", "094318.825000", "094320.330000", "094321.837500", "094323.342500", "094324.850000", "094326.355000", "094327.860000", "094329.367500", "094330.872500", "094332.380000", "094333.885000", "094335.390000", "094336.897500", "094338.402500", "094339.910000", "094341.415000", "094342.920000", "094344.427500", "094345.932500", "094347.440000", "094348.945000", "094350.452500", "094351.957500", "094353.462500", "094354.970000", "094356.475000", "094357.982500", "094359.487500", "094400.992500", "094402.500000", "094404.005000", "094405.512500", "094407.017500", "094408.522500", "094410.030000", "094411.535000", "094413.042500", "094414.547500", "094416.055000", "094417.560000", "094419.065000", "094420.572500", "094422.077500", "094423.585000", "094425.090000", "094426.595000", "094428.102500", "094429.607500", "094431.115000", "094432.620000", "094434.125000", "094435.632500", "094437.137500", "094438.645000", "094440.150000", "094441.655000", "094443.162500", "094444.667500", "094446.175000", "094447.680000", "094449.187500", "094450.692500", "094452.197500", "094453.705000", "094455.210000", "094456.717500", "094458.222500", "094459.727500", "094501.235000", "094502.740000", "094504.247500", "094505.752500", "094507.257500", "094508.765000", "094510.270000", "094511.777500", "094513.282500", "094514.787500", "094516.295000", "094517.800000", "094519.307500", "094520.812500", "094522.320000", "094523.825000", "094525.330000", "094526.837500", "094528.342500", "094529.850000"],
      "ContentTime": ["094849.968000", "094849.968000", "094849.968000", "094849.968000", "094849.968000", "094849.984000", "094849.984000", "094849.984000", "094949.968000", "094949.968000", "094949.968000", "094949.968000", "094949.968000", "094949.984000", "094949.984000", "094949.984000", "094949.984000", "094949.984000", "094950.000000", "094950.000000", "094950.000000", "094950.000000", "094950.000000", "094950.000000", "094950.000000", "094950.000000", "094950.000000", "094950.015000", "094950.015000", "094950.015000", "094950.015000", "094950.015000", "094950.015000", "094950.015000", "095049.968000", "095049.968000", "095049.968000", "095049.968000", "095049.968000", "095049.968000", "095049.968000", "095049.968000", "095049.984000", "095049.984000", "095049.984000", "095049.984000", "095049.984000", "095049.984000", "095049.984000", "095049.984000", "095049.984000", "095050.000000", "095050.000000", "095050.000000", "095050.000000", "095050.000000", "095050.000000", "095050.000000", "095050.000000", "095050.000000", "095149.968000", "095149.968000", "095149.968000", "095149.968000", "095149.968000", "095149.968000", "095149.968000", "095149.968000", "095149.968000", "095149.984000", "095149.984000", "095149.984000", "095149.984000", "095149.984000", "095149.984000", "095149.984000", "095149.984000", "095149.984000", "095150.000000", "095150.000000", "095150.000000", "095150.000000", "095150.000000", "095150.000000", "095150.000000", "095150.000000", "095229.968000", "095229.968000", "095229.968000", "095229.968000", "095229.984000", "095229.984000", "095229.984000", "095229.984000", "095230.000000", "095230.000000", "095230.000000", "095230.000000", "095230.000000", "095230.000000", "095230.000000", "095230.000000", "095230.015000", "095329.968000", "095329.968000", "095329.968000", "095329.968000", "095329.968000", "095329.968000", "095329.968000", "095329.968000", "095329.968000", "095329.984000", "095329.984000", "095329.984000", "095329.984000", "095330.000000", "095330.000000", "095330.000000", "095330.000000", "095330.000000", "095330.015000", "095330.015000", "095330.015000", "095330.015000", "095330.015000", "095330.015000", "095330.015000", "095330.015000", "095429.968000", "095429.968000", "095429.968000", "095429.968000", "095429.968000", "095429.968000", "095429.968000", "095429.968000", "095429.968000", "095429.984000", "095429.984000", "095429.984000", "095429.984000", "095429.984000", "095429.984000", "095429.984000", "095429.984000", "095430.000000", "095430.000000", "095430.000000", "095430.000000", "095430.000000", "095430.000000", "095430.015000", "095430.015000", "095430.015000", "095529.968000", "095529.968000", "095529.968000", "095529.968000", "095529.968000", "095529.968000", "095529.968000", "095529.968000", "095529.968000", "095529.984000", "095529.984000", "095529.984000", "095529.984000", "095529.984000", "095530.000000", "095530.000000", "095530.000000", "095530.000000", "095530.000000", "095530.015000", "095530.015000", "095530.015000", "095530.015000", "095530.015000", "095530.015000", "095530.015000", "095629.968000", "095629.968000", "095629.968000", "095629.968000", "095629.968000", "095629.968000", "095629.968000", "095629.968000", "095629.968000", "095629.984000", "095629.984000", "095629.984000", "095629.984000", "095629.984000", "095629.984000", "095629.984000", "095629.984000", "095630.000000", "095630.000000", "095630.000000", "095630.000000", "095630.000000", "095630.000000", "095630.000000", "095630.015000", "095729.968000", "095729.968000", "095729.968000", "095729.968000", "095729.968000", "095729.968000", "095729.968000", "095729.968000", "095729.984000", "095729.984000", "095729.984000", "095729.984000", "095729.984000", "095729.984000", "095729.984000", "095730.000000", "095730.000000", "095730.000000", "095730.000000", "095730.000000", "095730.000000", "095730.000000", "095730.000000", "095730.000000", "095730.015000", "095730.015000", "095730.015000", "095829.968000", "095829.968000", "095829.968000", "095829.968000", "095829.968000", "095829.968000", "095829.968000", "095829.968000", "095829.968000", "095829.984000", "095829.984000", "095829.984000", "095829.984000", "095829.984000", "095829.984000", "095829.984000", "095830.000000", "095830.000000", "095830.000000", "095830.000000", "095830.000000", "095830.000000", "095830.000000", "095830.000000", "095830.000000", "095929.968000", "095929.968000", "095929.968000", "095929.968000", "095929.984000", "095929.984000", "095929.984000", "095929.984000", "095929.984000", "095929.984000", "095929.984000", "095929.984000", "095929.984000", "095930.000000", "095930.000000", "095930.000000", "095930.000000", "095930.000000", "095930.000000", "095930.000000", "095930.000000", "095930.000000", "095930.015000", "095930.015000", "095930.015000", "095930.015000", "095930.015000", "100029.968000", "100029.968000", "100029.968000", "100029.968000", "100029.968000", "100029.968000", "100029.968000", "100029.968000", "100029.968000", "100029.984000", "100029.984000", "100029.984000", "100029.984000", "100029.984000", "100029.984000", "100029.984000", "100029.984000", "100029.984000", "100030.000000", "100030.000000", "100030.000000", "100030.000000", "100030.000000", "100030.000000", "100030.000000", "100129.968000", "100129.968000", "100129.968000", "100129.968000", "100129.968000", "100129.984000", "100129.984000", "100129.984000", "100129.984000", "100129.984000", "100129.984000", "100129.984000", "100129.984000", "100129.984000", "100130.000000", "100130.000000", "100130.000000", "100130.000000", "100130.000000", "100130.000000", "100130.000000", "100130.015000", "100130.015000", "100130.015000", "100130.015000", "100130.015000", "100217.500000", "100217.500000", "100217.515000", "100217.515000", "100217.515000", "100217.515000", "100217.531000", "100217.531000", "100217.531000", "100217.531000", "100217.531000", "100217.531000", "100217.531000", "100217.531000", "100217.546000", "100217.546000", "100217.546000", "100217.546000", "100217.546000", "100217.562000", "100217.562000"],
      "DataSetTrailingPadding": [
        "\u0000\u0000\u0000\u0000\u0000\u0000\u0000\u0000",
        "\u0000\u0000\u0000\u0000\u0000\u0000",
        "\u0000\u0000\u0000\u0000\u0000\u0000",
        "\u0000\u0000\u0000\u0000\u0000\u0000\u0000\u0000",
        "\u0000\u0000\u0000\u0000\u0000\u0000\u0000\u0000",
        "\u0000\u0000\u0000\u0000\u0000\u0000\u0000\u0000",
        "\u0000\u0000\u0000\u0000\u0000\u0000",
        "\u0000\u0000\u0000\u0000\u0000\u0000",
        "\u0000\u0000\u0000\u0000\u0000\u0000\u0000\u0000",
        "\u0000\u0000\u0000\u0000",
        "\u0000\u0000\u0000\u0000",
        "\u0000\u0000",
        "\u0000\u0000",
        "\u0000\u0000\u0000\u0000",
        "\u0000\u0000\u0000\u0000",
        "\u0000\u0000",
        "\u0000\u0000",
        "\u0000\u0000",
        "\u0000\u0000\u0000\u0000",
        "\u0000\u0000\u0000\u0000\u0000\u0000",
        "\u0000\u0000",
        "\u0000\u0000",
        "\u0000\u0000",
        "\u0000\u0000\u0000\u0000",
        "\u0000\u0000\u0000\u0000",
        "\u0000\u0000",
        "\u0000\u0000",
        "\u0000\u0000",
        "\u0000\u0000\u0000\u0000",
        "\u0000\u0000\u0000\u0000",
        "\u0000\u0000",
        "\u0000\u0000",
        "\u0000\u0000",
        "\u0000\u0000\u0000\u0000",
        "\u0000\u0000\u0000\u0000",
        "\u0000\u0000",
        "\u0000\u0000",
        "\u0000\u0000\u0000\u0000\u0000\u0000\u0000\u0000",
        "\u0000\u0000\u0000\u0000",
        "\u0000\u0000\u0000\u0000\u0000\u0000",
        "\u0000\u0000",
        "\u0000\u0000",
        "\u0000\u0000\u0000\u0000",
        "\u0000\u0000\u0000\u0000",
        "\u0000\u0000\u0000\u0000",
        "\u0000\u0000",
        "\u0000\u0000",
        "\u0000\u0000\u0000\u0000",
        "\u0000\u0000\u0000\u0000",
        "\u0000\u0000\u0000\u0000",
        "\u0000\u0000",
        "\u0000\u0000",
        "\u0000\u0000\u0000\u0000",
        "\u0000\u0000\u0000\u0000",
        "\u0000\u0000\u0000\u0000",
        "\u0000\u0000\u0000\u0000\u0000\u0000",
        "\u0000\u0000\u0000\u0000\u0000\u0000\u0000\u0000\u0000\u0000\u0000\u0000\u0000\u0000\u0000\u0000\u0000\u0000\u0000\u0000\u0000\u0000\u0000\u0000\u0000\u0000\u0000\u0000\u0000\u0000\u0000\u0000\u0000\u0000\u0000\u0000\u0000\u0000\u0000\u0000\u0000\u0000\u0000\u0000\u0000\u0000\u0000\u0000\u0000\u0000\u0000\u0000\u0000\u0000\u0000\u0000\u0000\u0000\u0000\u0000\u0000\u0000\u0000\u0000\u0000\u0000\u0000\u0000\u0000\u0000\u0000\u0000\u0000\u0000\u0000\u0000\u0000\u0000\u0000\u0000\u0000\u0000\u0000\u0000\u0000\u0000\u0000\u0000\u0000\u0000\u0000\u0000\u0000\u0000\u0000\u0000\u0000\u0000\u0000\u0000\u0000\u0000\u0000\u0000\u0000\u0000\u0000\u0000\u0000\u0000\u0000\u0000\u0000\u0000\u0000\u0000\u0000\u0000\u0000\u0000\u0000\u0000\u0000\u0000\u0000\u0000\u0000\u0000\u0000\u0000\u0000\u0000\u0000\u0000\u0000\u0000\u0000\u0000\u0000\u0000\u0000\u0000\u0000\u0000\u0000\u0000\u0000\u0000\u0000\u0000\u0000\u0000\u0000\u0000\u0000\u0000\u0000\u0000\u0000\u0000\u0000\u0000\u0000\u0000\u0000\u0000\u0000\u0000\u0000\u0000\u0000\u0000\u0000\u0000\u0000\u0000\u0000\u0000\u0000\u0000\u0000\u0000\u0000\u0000\u0000\u0000\u0000\u0000\u0000\u0000\u0000\u0000\u0000\u0000\u0000\u0000\u0000\u0000\u0000\u0000\u0000\u0000\u0000\u0000\u0000\u0000\u0000\u0000\u0000\u0000\u0000\u0000\u0000\u0000\u0000\u0000\u0000\u0000\u0000\u0000\u0000\u0000\u0000\u0000\u0000\u0000\u0000\u0000\u0000\u0000\u0000\u0000\u0000\u0000\u0000\u0000\u0000\u0000\u0000\u0000\u0000\u0000\u0000\u0000\u0000\u0000\u0000\u0000\u0000\u0000\u0000\u0000\u0000\u0000\u0000\u0000\u0000\u0000\u0000\u0000\u0000\u0000\u0000\u0000\u0000\u0000\u0000\u0000\u0000\u0000\u0000\u0000\u0000\u0000\u0000\u0000\u0000\u0000\u0000\u0000\u0000\u0000\u0000\u0000\u0000\u0000\u0000\u0000\u0000\u0000\u0000\u0000\u0000\u0000\u0000\u0000\u0000\u0000\u0000\u0000\u0000\u0000\u0000\u0000\u0000\u0000\u0000\u0000\u0000\u0000\u0000\u0000\u0000\u0000\u0000\u0000\u0000\u0000\u0000\u0000\u0000\u0000\u0000\u0000\u0000\u0000\u0000\u0000\u0000\u0000\u0000\u0000\u0000\u0000\u0000\u0000\u0000\u0000\u0000\u0000\u0000\u0000\u0000\u0000\u0000\u0000\u0000\u0000\u0000\u0000\u0000\u0000\u0000\u0000\u0000\u0000\u0000\u0000\u0000\u0000\u0000\u0000\u0000\u0000\u0000\u0000\u0000\u0000\u0000\u0000\u0000\u0000\u0000\u0000\u0000\u0000\u0000\u0000\u0000\u0000\u0000\u0000\u0000\u0000\u0000\u0000\u0000\u0000\u0000\u0000\u0000\u0000\u0000\u0000\u0000\u0000\u0000\u0000\u0000\u0000\u0000\u0000\u0000\u0000\u0000\u0000\u0000\u0000\u0000\u0000\u0000\u0000\u0000\u0000\u0000\u0000\u0000\u0000\u0000\u0000\u0000\u0000\u0000\u0000\u0000\u0000\u0000\u0000\u0000\u0000\u0000\u0000\u0000\u0000\u0000\u0000\u0000\u0000\u0000\u0000\u0000\u0000\u0000\u0000\u0000\u0000\u0000\u0000\u0000\u0000\u0000\u0000\u0000\u0000\u0000\u0000\u0000\u0000\u0000\u0000\u0000\u0000\u0000\u0000\u0000\u0000\u0000\u0000\u0000\u0000\u0000\u0000\u0000\u0000\u0000\u0000\u0000\u0000\u0000\u0000\u0000\u0000\u0000\u0000\u0000\u0000\u0000\u0000\u0000\u0000\u0000\u0000\u0000\u0000\u0000\u0000\u0000\u0000\u0000\u0000\u0000\u0000\u0000\u0000\u0000\u0000\u0000\u0000\u0000\u0000",
        "\u0000\u0000\u0000\u0000\u0000\u0000\u0000\u0000\u0000\u0000\u0000\u0000\u0000\u0000\u0000\u0000\u0000\u0000\u0000\u0000\u0000\u0000\u0000\u0000\u0000\u0000\u0000\u0000\u0000\u0000\u0000\u0000\u0000\u0000\u0000\u0000\u0000\u0000\u0000\u0000\u0000\u0000\u0000\u0000\u0000\u0000\u0000\u0000\u0000\u0000\u0000\u0000\u0000\u0000\u0000\u0000\u0000\u0000\u0000\u0000\u0000\u0000\u0000\u0000\u0000\u0000\u0000\u0000\u0000\u0000\u0000\u0000\u0000\u0000\u0000\u0000\u0000\u0000\u0000\u0000\u0000\u0000\u0000\u0000\u0000\u0000\u0000\u0000\u0000\u0000\u0000\u0000\u0000\u0000\u0000\u0000\u0000\u0000\u0000\u0000\u0000\u0000\u0000\u0000\u0000\u0000\u0000\u0000\u0000\u0000\u0000\u0000\u0000\u0000\u0000\u0000\u0000\u0000\u0000\u0000\u0000\u0000\u0000\u0000\u0000\u0000\u0000\u0000\u0000\u0000\u0000\u0000\u0000\u0000\u0000\u0000\u0000\u0000\u0000\u0000\u0000\u0000\u0000\u0000\u0000\u0000\u0000\u0000\u0000\u0000\u0000\u0000\u0000\u0000\u0000\u0000\u0000\u0000\u0000\u0000\u0000\u0000\u0000\u0000\u0000\u0000\u0000\u0000\u0000\u0000\u0000\u0000\u0000\u0000\u0000\u0000\u0000\u0000\u0000\u0000\u0000\u0000\u0000\u0000\u0000\u0000\u0000\u0000\u0000\u0000\u0000\u0000\u0000\u0000\u0000\u0000\u0000\u0000\u0000\u0000\u0000\u0000\u0000\u0000\u0000\u0000\u0000\u0000\u0000\u0000\u0000\u0000\u0000\u0000\u0000\u0000\u0000\u0000\u0000\u0000\u0000\u0000\u0000\u0000\u0000\u0000\u0000\u0000\u0000\u0000\u0000\u0000\u0000\u0000\u0000\u0000\u0000\u0000\u0000\u0000\u0000\u0000\u0000\u0000\u0000\u0000\u0000\u0000\u0000\u0000\u0000\u0000\u0000\u0000\u0000\u0000\u0000\u0000\u0000\u0000\u0000\u0000\u0000\u0000\u0000\u0000\u0000\u0000\u0000\u0000\u0000\u0000\u0000\u0000\u0000\u0000\u0000\u0000\u0000\u0000\u0000\u0000\u0000\u0000\u0000\u0000\u0000\u0000\u0000\u0000\u0000\u0000\u0000\u0000\u0000\u0000\u0000\u0000\u0000\u0000\u0000\u0000\u0000\u0000\u0000\u0000\u0000\u0000\u0000\u0000\u0000\u0000\u0000\u0000\u0000\u0000\u0000\u0000\u0000\u0000\u0000\u0000\u0000\u0000\u0000\u0000\u0000\u0000\u0000\u0000\u0000\u0000\u0000\u0000\u0000\u0000\u0000\u0000\u0000\u0000\u0000\u0000\u0000\u0000\u0000\u0000\u0000\u0000\u0000\u0000\u0000\u0000\u0000\u0000\u0000\u0000\u0000\u0000\u0000\u0000\u0000\u0000\u0000\u0000\u0000\u0000\u0000\u0000\u0000\u0000\u0000\u0000\u0000\u0000\u0000\u0000\u0000\u0000\u0000\u0000\u0000\u0000\u0000\u0000\u0000\u0000\u0000\u0000\u0000\u0000\u0000\u0000\u0000\u0000\u0000\u0000\u0000\u0000\u0000\u0000\u0000\u0000\u0000\u0000\u0000\u0000\u0000\u0000\u0000\u0000\u0000\u0000\u0000\u0000\u0000\u0000\u0000\u0000\u0000\u0000\u0000\u0000\u0000\u0000\u0000\u0000\u0000\u0000\u0000\u0000\u0000\u0000\u0000\u0000\u0000\u0000\u0000\u0000\u0000\u0000\u0000\u0000\u0000\u0000\u0000\u0000\u0000\u0000\u0000\u0000\u0000\u0000\u0000\u0000\u0000\u0000\u0000\u0000\u0000\u0000\u0000\u0000\u0000\u0000\u0000\u0000\u0000\u0000\u0000\u0000\u0000\u0000\u0000\u0000\u0000\u0000\u0000\u0000\u0000\u0000\u0000\u0000\u0000\u0000\u0000\u0000\u0000\u0000\u0000\u0000\u0000\u0000\u0000\u0000\u0000\u0000\u0000\u0000\u0000\u0000\u0000\u0000\u0000\u0000\u0000\u0000\u0000\u0000\u0000\u0000\u0000\u0000",
