{
  "AcquisitionMatrixPE": 110,
  "AcquisitionNumber": 1,
  "AcquisitionTime": "15:51:35.262500",
  "BandwidthPerPixelPhaseEncode": 26.35,
  "BaseResolution": 110,
  "CoilString": "C:HEA;HEP",
  "ConversionSoftware": "dcm2niix",
  "ConversionSoftwareVersion": "v1.0.20190410  GCC6.3.0",
  "DerivedVendorReportedEchoSpacing": 0.000690012,
  "DeviceSerialNumber": "35422",
  "DwellTime": 2.6e-06,
  "EchoTime": 0.03,
  "EffectiveEchoSpacing": 0.000345006,
  "FlipAngle": 85,
  "ImageComments": "Unaliased_MB4_PE4_LB",
  "ImageOrientationPatientDICOM": [0.999782, 0.00167451, 0.0208077, 1.87642e-10, 0.996777, -0.0802164],
  "ImageType": [
    "ORIGINAL",
    "PRIMARY",
    "FMRI",
    "NONE",
    "MB",
    "ND",
    "MOSAIC"
],
  "ImagingFrequency": 123.177,
  "InPlanePhaseEncodingDirectionDICOM": "ROW",
  "InstitutionAddress": "kwanakro_599_C6F879_Seoul_KR_ZIP",
  "InstitutionName": "SNUBIC",
  "InstitutionalDepartmentName": "Department",
  "MRAcquisitionType": "2D",
  "MagneticFieldStrength": 3,
  "Manufacturer": "Siemens",
  "ManufacturersModelName": "TrioTim",
  "Modality": "MR",
  "MultibandAccelerationFactor": 4,
  "ParallelReductionFactorInPlane": 2,
  "PartialFourier": 1,
  "PatientPosition": "HFS",
  "PercentPhaseFOV": 100,
  "PhaseEncodingDirection": "i-",
  "PhaseEncodingSteps": 110,
  "PhaseResolution": 1,
  "PixelBandwidth": 1748,
  "ProcedureStepDescription": "SNU_SAVED",
  "ProtocolName": "WMGNG2_MB4_LR_SBRef",
  "PulseSequenceDetails": "%CustomerSeq%_cmrr_mbep2d_bold",
  "ReceiveCoilName": "32Ch_Head",
  "ReconMatrixPE": 110,
  "RefLinesPE": 32,
  "RepetitionTime": 1.5,
  "SAR": 0.129983,
  "ScanOptions": "FS",
  "ScanningSequence": "EP",
  "SequenceName": "epfid2d1_110",
  "SequenceVariant": "SK_SS",
  "SeriesDescription": "WMGNG2_MB4_LR_SBRef",
  "SeriesNumber": 20,
  "ShimSetting": [-4117, -29727, -2070, 786, -132, 369, -167, -106],
  "SliceThickness": 2.3,
  "SliceTiming": [0, 0.66, 1.3175, 0.4725, 1.13, 0.2825, 0.9425, 0.095, 0.755, 1.4125, 0.565, 1.225, 0.3775, 1.035, 0.19, 0.8475, 0, 0.66, 1.3175, 0.4725, 1.13, 0.2825, 0.9425, 0.095, 0.755, 1.4125, 0.565, 1.225, 0.3775, 1.035, 0.19, 0.8475, 0, 0.66, 1.3175, 0.4725, 1.13, 0.2825, 0.9425, 0.095, 0.755, 1.4125, 0.565, 1.225, 0.3775, 1.035, 0.19, 0.8475, 0, 0.66, 1.3175, 0.4725, 1.13, 0.2825, 0.9425, 0.095, 0.755, 1.4125, 0.565, 1.225, 0.3775, 1.035, 0.19, 0.8475],
  "SoftwareVersions": "syngo_MR_B17",
  "SpacingBetweenSlices": 2.3,
  "StationName": "MRC35422",
  "TaskName": "wmgng",
  "TotalReadoutTime": 0.0376057,
  "TxRefAmp": 325.771,
  "dcmmeta_affine": [
    [-2.326765537261963, 4.3669315386019036e-10, 0.04801240935921669, 127.2197265625],
    [-0.0038970510940998793, 2.319772958755493, -0.18445752561092377, -92.9765396118164],
    [0.04842517152428627, 0.1866854429244995, 2.292088747024536, -60.9178581237793],
    [0.0, 0.0, 0.0, 1.0]
],
  "dcmmeta_reorient_transform": [
    [0.0, -1.0, 0.0, 109.0],
    [1.0, 0.0, 0.0, 0.0],
    [0.0, 0.0, 1.0, 0.0],
    [0.0, 0.0, 0.0, 1.0]
],
  "dcmmeta_shape": [110, 110, 64, 357],
  "dcmmeta_slice_dim": 2,
  "dcmmeta_version": 0.6,
  "global": {
    "const": {
      "AcquisitionMatrix": [0, 110, 110, 0],
      "AngioFlag": "N",
      "BitsAllocated": 16,
      "BitsStored": 12,
      "Columns": 880,
      "EchoNumbers": 1,
      "EchoTime": 30.0,
      "EchoTrainLength": 1,
      "FlipAngle": 85.0,
      "HighBit": 11,
      "ImageOrientationPatient": [0.99978209425731, 0.00167451416537, 0.02080769100047, 1.876416e-10, 0.99677747178096, -0.0802164057407],
      "ImagePositionPatient": [-1023.0244559162, -1054.4916597548, 12.661063868266],
      "ImageType": [
        "ORIGINAL",
        "PRIMARY",
        "FMRI",
        "NONE",
        "MB",
        "ND",
        "MOSAIC"
],
      "ImagedNucleus": "1H",
      "ImagingFrequency": 123.177323,
      "InPlanePhaseEncodingDirection": "ROW",
      "MRAcquisitionType": "2D",
      "MagneticFieldStrength": 3.0,
      "Manufacturer": "SIEMENS",
      "ManufacturerModelName": "TrioTim",
      "Modality": "MR",
      "NumberOfAverages": 1.0,
      "NumberOfPhaseEncodingSteps": 110,
      "PercentPhaseFieldOfView": 100.0,
      "PercentSampling": 100.0,
      "PerformedProcedureStepStartTime": "150245.953000",
      "PhotometricInterpretation": "MONOCHROME2",
      "PixelBandwidth": 1748.0,
      "PixelRepresentation": 0,
      "PixelSpacing": [2.3272726535797, 2.3272726535797],
      "ProtocolName": "WMGNG2_MB4_LR_SBRef",
      "ReferencedPerformedProcedureStepSequence": [
        {
          "ReferencedSOPClassUID": "1.2.840.10008.3.1.2.3.3",
          "ReferencedSOPInstanceUID": "1.3.12.2.1107.5.2.32.35422.30000020060300301040600000001"}
],
      "RepetitionTime": 1500.0,
      "Rows": 880,
      "SAR": 0.12998291751207,
      "SamplesPerPixel": 1,
      "ScanOptions": "FS",
      "ScanningSequence": "EP",
      "SequenceName": "epfid2d1_110",
      "SequenceVariant": [
        "SK",
        "SS"
],
      "SeriesDescription": "WMGNG2_MB4_LR_SBRef",
      "SeriesNumber": 20,
      "SeriesTime": "160226.453000",
      "SliceLocation": -50.595989760392,
      "SliceThickness": 2.2999999523163,
      "SmallestImagePixelValue": 0,
      "SoftwareVersions": "syngo MR B17",
      "SpacingBetweenSlices": 2.3000000283608,
      "SpecificCharacterSet": "ISO_IR 100",
      "StudyID": "1",
      "StudyTime": "150245.906000",
      "TransmitCoilName": "Body",
      "VariableFlipAngleFlag": "N",
      "WindowCenterWidthExplanation": "Algo1",
      "dBdt": 0.0},
    "slices": {}
  },
  "time": {
    "samples": {
      "AcquisitionNumber": [1, 2, 3, 4, 5, 6, 7, 8, 9, 10, 11, 12, 13, 14, 15, 16, 17, 18, 19, 20, 21, 22, 23, 24, 25, 26, 27, 28, 29, 30, 31, 32, 33, 34, 35, 36, 37, 38, 39, 40, 41, 42, 43, 44, 45, 46, 47, 48, 49, 50, 51, 52, 53, 54, 55, 56, 57, 58, 59, 60, 61, 62, 63, 64, 65, 66, 67, 68, 69, 70, 71, 72, 73, 74, 75, 76, 77, 78, 79, 80, 81, 82, 83, 84, 85, 86, 87, 88, 89, 90, 91, 92, 93, 94, 95, 96, 97, 98, 99, 100, 101, 102, 103, 104, 105, 106, 107, 108, 109, 110, 111, 112, 113, 114, 115, 116, 117, 118, 119, 120, 121, 122, 123, 124, 125, 126, 127, 128, 129, 130, 131, 132, 133, 134, 135, 136, 137, 138, 139, 140, 141, 142, 143, 144, 145, 146, 147, 148, 149, 150, 151, 152, 153, 154, 155, 156, 157, 158, 159, 160, 161, 162, 163, 164, 165, 166, 167, 168, 169, 170, 171, 172, 173, 174, 175, 176, 177, 178, 179, 180, 181, 182, 183, 184, 185, 186, 187, 188, 189, 190, 191, 192, 193, 194, 195, 196, 197, 198, 199, 200, 201, 202, 203, 204, 205, 206, 207, 208, 209, 210, 211, 212, 213, 214, 215, 216, 217, 218, 219, 220, 221, 222, 223, 224, 225, 226, 227, 228, 229, 230, 231, 232, 233, 234, 235, 236, 237, 238, 239, 240, 241, 242, 243, 244, 245, 246, 247, 248, 249, 250, 251, 252, 253, 254, 255, 256, 257, 258, 259, 260, 261, 262, 263, 264, 265, 266, 267, 268, 269, 270, 271, 272, 273, 274, 275, 276, 277, 278, 279, 280, 281, 282, 283, 284, 285, 286, 287, 288, 289, 290, 291, 292, 293, 294, 295, 296, 297, 298, 299, 300, 301, 302, 303, 304, 305, 306, 307, 308, 309, 310, 311, 312, 313, 314, 315, 316, 317, 318, 319, 320, 321, 322, 323, 324, 325, 326, 327, 328, 329, 330, 331, 332, 333, 334, 335, 336, 337, 338, 339, 340, 341, 342, 343, 344, 345, 346, 347, 348, 349, 350, 351, 352, 353, 354, 355, 356, 357],
      "AcquisitionTime": ["155135.262500", "155136.770000", "155138.275000", "155139.782500", "155141.287500", "155142.792500", "155144.300000", "155145.805000", "155147.312500", "155148.817500", "155150.322500", "155151.830000", "155153.335000", "155154.842500", "155156.347500", "155157.855000", "155159.360000", "155200.865000", "155202.372500", "155203.877500", "155205.385000", "155206.890000", "155208.395000", "155209.902500", "155211.407500", "155212.915000", "155214.420000", "155215.925000", "155217.432500", "155218.937500", "155220.445000", "155221.950000", "155223.457500", "155224.962500", "155226.467500", "155227.975000", "155229.480000", "155230.987500", "155232.492500", "155233.997500", "155235.505000", "155237.010000", "155238.517500", "155240.022500", "155241.527500", "155243.035000", "155244.540000", "155246.047500", "155247.552500", "155249.057500", "155250.565000", "155252.070000", "155253.577500", "155255.082500", "155256.590000", "155258.095000", "155259.600000", "155301.107500", "155302.612500", "155304.120000", "155305.625000", "155307.130000", "155308.637500", "155310.142500", "155311.650000", "155313.155000", "155314.660000", "155316.167500", "155317.672500", "155319.180000", "155320.685000", "155322.190000", "155323.697500", "155325.202500", "155326.710000", "155328.215000", "155329.722500", "155331.227500", "155332.732500", "155334.240000", "155335.745000", "155337.252500", "155338.757500", "155340.262500", "155341.770000", "155343.275000", "155344.782500", "155346.287500", "155347.792500", "155349.300000", "155350.805000", "155352.312500", "155353.817500", "155355.322500", "155356.830000", "155358.335000", "155359.842500", "155401.347500", "155402.855000", "155404.360000", "155405.865000", "155407.372500", "155408.877500", "155410.385000", "155411.890000", "155413.395000", "155414.902500", "155416.407500", "155417.915000", "155419.420000", "155420.925000", "155422.432500", "155423.937500", "155425.445000", "155426.950000", "155428.457500", "155429.962500", "155431.467500", "155432.975000", "155434.480000", "155435.987500", "155437.492500", "155438.997500", "155440.505000", "155442.010000", "155443.517500", "155445.022500", "155446.527500", "155448.035000", "155449.540000", "155451.047500", "155452.552500", "155454.057500", "155455.565000", "155457.070000", "155458.577500", "155500.082500", "155501.590000", "155503.095000", "155504.600000", "155506.107500", "155507.612500", "155509.120000", "155510.625000", "155512.130000", "155513.637500", "155515.142500", "155516.650000", "155518.155000", "155519.660000", "155521.167500", "155522.672500", "155524.180000", "155525.685000", "155527.190000", "155528.697500", "155530.202500", "155531.710000", "155533.215000", "155534.722500", "155536.227500", "155537.732500", "155539.240000", "155540.745000", "155542.252500", "155543.757500", "155545.262500", "155546.770000", "155548.275000", "155549.782500", "155551.287500", "155552.792500", "155554.300000", "155555.805000", "155557.312500", "155558.817500", "155600.322500", "155601.830000", "155603.335000", "155604.842500", "155606.347500", "155607.855000", "155609.360000", "155610.865000", "155612.372500", "155613.877500", "155615.385000", "155616.890000", "155618.395000", "155619.902500", "155621.407500", "155622.915000", "155624.420000", "155625.925000", "155627.432500", "155628.937500", "155630.445000", "155631.950000", "155633.457500", "155634.962500", "155636.467500", "155637.975000", "155639.480000", "155640.987500", "155642.492500", "155643.997500", "155645.505000", "155647.010000", "155648.517500", "155650.022500", "155651.527500", "155653.035000", "155654.540000", "155656.047500", "155657.552500", "155659.057500", "155700.565000", "155702.070000", "155703.577500", "155705.082500", "155706.590000", "155708.095000", "155709.600000", "155711.107500", "155712.612500", "155714.120000", "155715.625000", "155717.130000", "155718.637500", "155720.142500", "155721.650000", "155723.155000", "155724.660000", "155726.167500", "155727.672500", "155729.180000", "155730.685000", "155732.190000", "155733.697500", "155735.202500", "155736.710000", "155738.215000", "155739.722500", "155741.227500", "155742.732500", "155744.240000", "155745.745000", "155747.252500", "155748.757500", "155750.262500", "155751.770000", "155753.275000", "155754.782500", "155756.287500", "155757.792500", "155759.300000", "155800.805000", "155802.312500", "155803.817500", "155805.322500", "155806.830000", "155808.335000", "155809.842500", "155811.347500", "155812.855000", "155814.360000", "155815.865000", "155817.372500", "155818.877500", "155820.385000", "155821.890000", "155823.395000", "155824.902500", "155826.407500", "155827.915000", "155829.420000", "155830.925000", "155832.432500", "155833.937500", "155835.445000", "155836.950000", "155838.457500", "155839.962500", "155841.467500", "155842.975000", "155844.480000", "155845.987500", "155847.492500", "155848.997500", "155850.505000", "155852.010000", "155853.517500", "155855.022500", "155856.527500", "155858.035000", "155859.540000", "155901.047500", "155902.552500", "155904.057500", "155905.565000", "155907.070000", "155908.577500", "155910.082500", "155911.590000", "155913.095000", "155914.600000", "155916.107500", "155917.612500", "155919.120000", "155920.625000", "155922.130000", "155923.637500", "155925.142500", "155926.650000", "155928.155000", "155929.660000", "155931.167500", "155932.672500", "155934.180000", "155935.685000", "155937.190000", "155938.697500", "155940.202500", "155941.710000", "155943.215000", "155944.722500", "155946.227500", "155947.732500", "155949.240000", "155950.745000", "155952.252500", "155953.757500", "155955.262500", "155956.770000", "155958.275000", "155959.782500", "160001.287500", "160002.792500", "160004.300000", "160005.805000", "160007.312500", "160008.817500", "160010.322500", "160011.830000", "160013.335000", "160014.842500", "160016.347500", "160017.855000", "160019.360000", "160020.865000", "160022.372500", "160023.877500", "160025.385000", "160026.890000", "160028.395000", "160029.902500", "160031.407500"],
      "ContentTime": ["160226.453000", "160226.453000", "160226.453000", "160226.468000", "160226.468000", "160226.468000", "160226.468000", "160326.437000", "160326.437000", "160326.453000", "160326.453000", "160326.453000", "160326.453000", "160326.468000", "160326.468000", "160326.468000", "160326.468000", "160326.468000", "160326.468000", "160326.468000", "160326.484000", "160326.484000", "160326.484000", "160326.484000", "160326.484000", "160326.484000", "160326.484000", "160326.484000", "160326.500000", "160326.500000", "160326.500000", "160326.500000", "160326.500000", "160426.437000", "160426.437000", "160426.437000", "160426.437000", "160426.437000", "160426.453000", "160426.453000", "160426.453000", "160426.453000", "160426.453000", "160426.453000", "160426.453000", "160426.453000", "160426.453000", "160426.468000", "160426.468000", "160426.468000", "160426.468000", "160426.468000", "160426.468000", "160426.468000", "160426.468000", "160426.468000", "160426.484000", "160426.484000", "160426.484000", "160526.437000", "160526.437000", "160526.437000", "160526.437000", "160526.437000", "160526.453000", "160526.453000", "160526.453000", "160526.453000", "160526.453000", "160526.453000", "160526.468000", "160526.468000", "160526.468000", "160526.468000", "160526.468000", "160526.468000", "160526.468000", "160526.484000", "160526.484000", "160526.484000", "160526.484000", "160526.484000", "160526.484000", "160526.484000", "160526.500000", "160626.437000", "160626.437000", "160626.437000", "160626.437000", "160626.437000", "160626.437000", "160626.453000", "160626.453000", "160626.453000", "160626.468000", "160626.468000", "160626.468000", "160626.468000", "160626.468000", "160626.468000", "160626.468000", "160626.468000", "160626.468000", "160626.484000", "160626.484000", "160626.484000", "160626.484000", "160626.484000", "160626.515000", "160626.515000", "160626.515000", "160726.437000", "160726.437000", "160726.437000", "160726.437000", "160726.437000", "160726.453000", "160726.453000", "160726.453000", "160726.453000", "160726.453000", "160726.468000", "160726.468000", "160726.468000", "160726.468000", "160726.468000", "160726.468000", "160726.468000", "160726.468000", "160726.468000", "160726.484000", "160726.484000", "160726.484000", "160726.484000", "160726.484000", "160726.484000", "160826.437000", "160826.437000", "160826.453000", "160826.453000", "160826.453000", "160826.453000", "160826.453000", "160826.453000", "160826.453000", "160826.468000", "160826.468000", "160826.468000", "160826.468000", "160826.468000", "160826.468000", "160826.484000", "160826.484000", "160826.484000", "160826.484000", "160826.484000", "160826.484000", "160826.484000", "160826.484000", "160826.484000", "160826.500000", "160826.500000", "160926.437000", "160926.437000", "160926.437000", "160926.437000", "160926.437000", "160926.437000", "160926.453000", "160926.453000", "160926.453000", "160926.453000", "160926.453000", "160926.453000", "160926.453000", "160926.468000", "160926.468000", "160926.468000", "160926.468000", "160926.468000", "160926.468000", "160926.484000", "160926.484000", "160926.484000", "160926.484000", "160926.484000", "160926.484000", "160926.484000", "161026.437000", "161026.437000", "161026.453000", "161026.453000", "161026.453000", "161026.453000", "161026.453000", "161026.453000", "161026.453000", "161026.453000", "161026.453000", "161026.468000", "161026.468000", "161026.468000", "161026.468000", "161026.468000", "161026.468000", "161026.468000", "161026.468000", "161026.484000", "161026.484000", "161026.484000", "161026.484000", "161026.484000", "161026.484000", "161026.484000", "161106.437000", "161106.437000", "161106.437000", "161106.437000", "161106.437000", "161106.453000", "161106.453000", "161106.453000", "161106.468000", "161106.468000", "161106.468000", "161106.468000", "161106.468000", "161106.484000", "161106.484000", "161106.484000", "161106.484000", "161106.484000", "161206.437000", "161206.453000", "161206.453000", "161206.453000", "161206.453000", "161206.453000", "161206.453000", "161206.468000", "161206.468000", "161206.468000", "161206.468000", "161206.468000", "161206.468000", "161206.484000", "161206.484000", "161206.484000", "161206.484000", "161206.484000", "161206.484000", "161206.484000", "161206.484000", "161206.500000", "161206.500000", "161206.500000", "161206.500000", "161306.437000", "161306.437000", "161306.437000", "161306.437000", "161306.437000", "161306.453000", "161306.453000", "161306.453000", "161306.453000", "161306.453000", "161306.453000", "161306.453000", "161306.468000", "161306.468000", "161306.468000", "161306.468000", "161306.468000", "161306.484000", "161306.484000", "161306.484000", "161306.484000", "161306.484000", "161306.484000", "161306.484000", "161306.484000", "161306.484000", "161406.437000", "161406.437000", "161406.437000", "161406.437000", "161406.437000", "161406.453000", "161406.453000", "161406.453000", "161406.453000", "161406.453000", "161406.468000", "161406.468000", "161406.468000", "161406.468000", "161406.468000", "161406.468000", "161406.468000", "161406.468000", "161406.468000", "161406.484000", "161406.484000", "161406.484000", "161406.484000", "161406.484000", "161406.484000", "161406.484000", "161506.437000", "161506.437000", "161506.437000", "161506.437000", "161506.453000", "161506.453000", "161506.453000", "161506.453000", "161506.453000", "161506.453000", "161506.468000", "161506.468000", "161506.468000", "161506.468000", "161506.484000", "161506.484000", "161506.484000", "161506.484000", "161506.484000", "161506.484000", "161506.484000", "161506.484000", "161506.484000", "161506.500000", "161506.500000", "161506.500000", "161506.500000", "161555.187000", "161555.187000", "161555.203000", "161555.203000", "161555.203000", "161555.203000", "161555.218000", "161555.218000", "161555.218000", "161555.234000", "161555.234000", "161555.234000", "161555.234000", "161555.234000", "161555.234000", "161555.234000", "161555.234000", "161555.250000", "161555.250000", "161555.250000", "161555.250000"],
      "DataSetTrailingPadding": [
        "\u0000\u0000\u0000\u0000\u0000\u0000\u0000\u0000",
        "\u0000\u0000\u0000\u0000\u0000\u0000\u0000\u0000",
        "\u0000\u0000\u0000\u0000\u0000\u0000",
        "\u0000\u0000\u0000\u0000\u0000\u0000",
        "\u0000\u0000\u0000\u0000\u0000\u0000\u0000\u0000",
        "\u0000\u0000\u0000\u0000\u0000\u0000\u0000\u0000",
        "\u0000\u0000\u0000\u0000\u0000\u0000\u0000\u0000\u0000\u0000",
        "\u0000\u0000\u0000\u0000\u0000\u0000",
        "\u0000\u0000\u0000\u0000\u0000\u0000",
        "\u0000\u0000\u0000\u0000",
        "\u0000\u0000\u0000\u0000",
        "\u0000\u0000",
        "\u0000\u0000",
        "\u0000\u0000",
        "\u0000\u0000\u0000\u0000",
        "\u0000\u0000\u0000\u0000",
        "\u0000\u0000",
        "\u0000\u0000",
        "\u0000\u0000",
        "\u0000\u0000\u0000\u0000",
        "\u0000\u0000\u0000\u0000",
        "\u0000\u0000",
        "\u0000\u0000",
        "\u0000\u0000",
        "\u0000\u0000\u0000\u0000",
        "\u0000\u0000\u0000\u0000",
        "\u0000\u0000",
        "\u0000\u0000",
        "\u0000\u0000",
        "\u0000\u0000\u0000\u0000",
        "\u0000\u0000\u0000\u0000",
        "\u0000\u0000",
        "\u0000\u0000\u0000\u0000",
        "\u0000\u0000\u0000\u0000",
        "\u0000\u0000\u0000\u0000",
        "\u0000\u0000\u0000\u0000",
        "\u0000\u0000",
        "\u0000\u0000",
        "\u0000\u0000\u0000\u0000",
        "\u0000\u0000\u0000\u0000\u0000\u0000",
        "\u0000\u0000\u0000\u0000\u0000\u0000\u0000\u0000",
        "\u0000\u0000",
        "\u0000\u0000",
        "\u0000\u0000\u0000\u0000",
        "\u0000\u0000\u0000\u0000",
        "\u0000\u0000\u0000\u0000",
        "\u0000\u0000",
        "\u0000\u0000",
        "\u0000\u0000\u0000\u0000\u0000\u0000\u0000\u0000",
        "\u0000\u0000\u0000\u0000",
        "\u0000\u0000\u0000\u0000",
        "\u0000\u0000",
        "\u0000\u0000",
        "\u0000\u0000\u0000\u0000",
        "\u0000\u0000\u0000\u0000\u0000\u0000",
        "\u0000\u0000",
        "\u0000\u0000\u0000\u0000\u0000\u0000\u0000\u0000\u0000\u0000\u0000\u0000\u0000\u0000\u0000\u0000\u0000\u0000\u0000\u0000\u0000\u0000\u0000\u0000\u0000\u0000\u0000\u0000\u0000\u0000\u0000\u0000\u0000\u0000\u0000\u0000\u0000\u0000\u0000\u0000\u0000\u0000\u0000\u0000\u0000\u0000\u0000\u0000\u0000\u0000\u0000\u0000\u0000\u0000\u0000\u0000\u0000\u0000\u0000\u0000\u0000\u0000\u0000\u0000\u0000\u0000\u0000\u0000\u0000\u0000\u0000\u0000\u0000\u0000\u0000\u0000\u0000\u0000\u0000\u0000\u0000\u0000\u0000\u0000\u0000\u0000\u0000\u0000\u0000\u0000\u0000\u0000\u0000\u0000\u0000\u0000\u0000\u0000\u0000\u0000\u0000\u0000\u0000\u0000\u0000\u0000\u0000\u0000\u0000\u0000\u0000\u0000\u0000\u0000\u0000\u0000\u0000\u0000\u0000\u0000\u0000\u0000\u0000\u0000\u0000\u0000\u0000\u0000\u0000\u0000\u0000\u0000\u0000\u0000\u0000\u0000\u0000\u0000\u0000\u0000\u0000\u0000\u0000\u0000\u0000\u0000\u0000\u0000\u0000\u0000\u0000\u0000\u0000\u0000\u0000\u0000\u0000\u0000\u0000\u0000\u0000\u0000\u0000\u0000\u0000\u0000\u0000\u0000\u0000\u0000\u0000\u0000\u0000\u0000\u0000\u0000\u0000\u0000\u0000\u0000\u0000\u0000\u0000\u0000\u0000\u0000\u0000\u0000\u0000\u0000\u0000\u0000\u0000\u0000\u0000\u0000\u0000\u0000\u0000\u0000\u0000\u0000\u0000\u0000\u0000\u0000\u0000\u0000\u0000\u0000\u0000\u0000\u0000\u0000\u0000\u0000\u0000\u0000\u0000\u0000\u0000\u0000\u0000\u0000\u0000\u0000\u0000\u0000\u0000\u0000\u0000\u0000\u0000\u0000\u0000\u0000\u0000\u0000\u0000\u0000\u0000\u0000\u0000\u0000\u0000\u0000\u0000\u0000\u0000\u0000\u0000\u0000\u0000\u0000\u0000\u0000\u0000\u0000\u0000\u0000\u0000\u0000\u0000\u0000\u0000\u0000\u0000\u0000\u0000\u0000\u0000\u0000\u0000\u0000\u0000\u0000\u0000\u0000\u0000\u0000\u0000\u0000\u0000\u0000\u0000\u0000\u0000\u0000\u0000\u0000\u0000\u0000\u0000\u0000\u0000\u0000\u0000\u0000\u0000\u0000\u0000\u0000\u0000\u0000\u0000\u0000\u0000\u0000\u0000\u0000\u0000\u0000\u0000\u0000\u0000\u0000\u0000\u0000\u0000\u0000\u0000\u0000\u0000\u0000\u0000\u0000\u0000\u0000\u0000\u0000\u0000\u0000\u0000\u0000\u0000\u0000\u0000\u0000\u0000\u0000\u0000\u0000\u0000\u0000\u0000\u0000\u0000\u0000\u0000\u0000\u0000\u0000\u0000\u0000\u0000\u0000\u0000\u0000\u0000\u0000\u0000\u0000\u0000\u0000\u0000\u0000\u0000\u0000\u0000\u0000\u0000\u0000\u0000\u0000\u0000\u0000\u0000\u0000\u0000\u0000\u0000\u0000\u0000\u0000\u0000\u0000\u0000\u0000\u0000\u0000\u0000\u0000\u0000\u0000\u0000\u0000\u0000\u0000\u0000\u0000\u0000\u0000\u0000\u0000\u0000\u0000\u0000\u0000\u0000\u0000\u0000\u0000\u0000\u0000\u0000\u0000\u0000\u0000\u0000\u0000\u0000\u0000\u0000\u0000\u0000\u0000\u0000\u0000\u0000\u0000\u0000\u0000\u0000\u0000\u0000\u0000\u0000\u0000\u0000\u0000\u0000\u0000\u0000\u0000\u0000\u0000\u0000\u0000\u0000\u0000\u0000\u0000\u0000\u0000\u0000\u0000\u0000\u0000\u0000\u0000\u0000\u0000\u0000\u0000\u0000\u0000\u0000\u0000\u0000\u0000\u0000\u0000\u0000\u0000\u0000\u0000\u0000\u0000\u0000\u0000\u0000\u0000\u0000\u0000\u0000\u0000\u0000\u0000\u0000\u0000\u0000\u0000\u0000\u0000\u0000\u0000\u0000\u0000\u0000\u0000\u0000\u0000\u0000\u0000\u0000\u0000\u0000\u0000\u0000\u0000",
        "\u0000\u0000\u0000\u0000\u0000\u0000\u0000\u0000\u0000\u0000\u0000\u0000\u0000\u0000\u0000\u0000\u0000\u0000\u0000\u0000\u0000\u0000\u0000\u0000\u0000\u0000\u0000\u0000\u0000\u0000\u0000\u0000\u0000\u0000\u0000\u0000\u0000\u0000\u0000\u0000\u0000\u0000\u0000\u0000\u0000\u0000\u0000\u0000\u0000\u0000\u0000\u0000\u0000\u0000\u0000\u0000\u0000\u0000\u0000\u0000\u0000\u0000\u0000\u0000\u0000\u0000\u0000\u0000\u0000\u0000\u0000\u0000\u0000\u0000\u0000\u0000\u0000\u0000\u0000\u0000\u0000\u0000\u0000\u0000\u0000\u0000\u0000\u0000\u0000\u0000\u0000\u0000\u0000\u0000\u0000\u0000\u0000\u0000\u0000\u0000\u0000\u0000\u0000\u0000\u0000\u0000\u0000\u0000\u0000\u0000\u0000\u0000\u0000\u0000\u0000\u0000\u0000\u0000\u0000\u0000\u0000\u0000\u0000\u0000\u0000\u0000\u0000\u0000\u0000\u0000\u0000\u0000\u0000\u0000\u0000\u0000\u0000\u0000\u0000\u0000\u0000\u0000\u0000\u0000\u0000\u0000\u0000\u0000\u0000\u0000\u0000\u0000\u0000\u0000\u0000\u0000\u0000\u0000\u0000\u0000\u0000\u0000\u0000\u0000\u0000\u0000\u0000\u0000\u0000\u0000\u0000\u0000\u0000\u0000\u0000\u0000\u0000\u0000\u0000\u0000\u0000\u0000\u0000\u0000\u0000\u0000\u0000\u0000\u0000\u0000\u0000\u0000\u0000\u0000\u0000\u0000\u0000\u0000\u0000\u0000\u0000\u0000\u0000\u0000\u0000\u0000\u0000\u0000\u0000\u0000\u0000\u0000\u0000\u0000\u0000\u0000\u0000\u0000\u0000\u0000\u0000\u0000\u0000\u0000\u0000\u0000\u0000\u0000\u0000\u0000\u0000\u0000\u0000\u0000\u0000\u0000\u0000\u0000\u0000\u0000\u0000\u0000\u0000\u0000\u0000\u0000\u0000\u0000\u0000\u0000\u0000\u0000\u0000\u0000\u0000\u0000\u0000\u0000\u0000\u0000\u0000\u0000\u0000\u0000\u0000\u0000\u0000\u0000\u0000\u0000\u0000\u0000\u0000\u0000\u0000\u0000\u0000\u0000\u0000\u0000\u0000\u0000\u0000\u0000\u0000\u0000\u0000\u0000\u0000\u0000\u0000\u0000\u0000\u0000\u0000\u0000\u0000\u0000\u0000\u0000\u0000\u0000\u0000\u0000\u0000\u0000\u0000\u0000\u0000\u0000\u0000\u0000\u0000\u0000\u0000\u0000\u0000\u0000\u0000\u0000\u0000\u0000\u0000\u0000\u0000\u0000\u0000\u0000\u0000\u0000\u0000\u0000\u0000\u0000\u0000\u0000\u0000\u0000\u0000\u0000\u0000\u0000\u0000\u0000\u0000\u0000\u0000\u0000\u0000\u0000\u0000\u0000\u0000\u0000\u0000\u0000\u0000\u0000\u0000\u0000\u0000\u0000\u0000\u0000\u0000\u0000\u0000\u0000\u0000\u0000\u0000\u0000\u0000\u0000\u0000\u0000\u0000\u0000\u0000\u0000\u0000\u0000\u0000\u0000\u0000\u0000\u0000\u0000\u0000\u0000\u0000\u0000\u0000\u0000\u0000\u0000\u0000\u0000\u0000\u0000\u0000\u0000\u0000\u0000\u0000\u0000\u0000\u0000\u0000\u0000\u0000\u0000\u0000\u0000\u0000\u0000\u0000\u0000\u0000\u0000\u0000\u0000\u0000\u0000\u0000\u0000\u0000\u0000\u0000\u0000\u0000\u0000\u0000\u0000\u0000\u0000\u0000\u0000\u0000\u0000\u0000\u0000\u0000\u0000\u0000\u0000\u0000\u0000\u0000\u0000\u0000\u0000\u0000\u0000\u0000\u0000\u0000\u0000\u0000\u0000\u0000\u0000\u0000\u0000\u0000\u0000\u0000\u0000\u0000\u0000\u0000\u0000\u0000\u0000\u0000\u0000\u0000\u0000\u0000\u0000\u0000\u0000\u0000\u0000\u0000\u0000\u0000\u0000\u0000\u0000\u0000\u0000\u0000\u0000\u0000\u0000\u0000\u0000\u0000\u0000\u0000\u0000\u0000\u0000\u0000\u0000\u0000\u0000\u0000\u0000",
