{
  "AcquisitionMatrixPE": 110,
  "AcquisitionNumber": 1,
  "AcquisitionTime": "14:33:53.897500",
  "BandwidthPerPixelPhaseEncode": 26.35,
  "BaseResolution": 110,
  "CoilString": "C:HEA;HEP",
  "ConversionSoftware": "dcm2niix",
  "ConversionSoftwareVersion": "v1.0.20190410  GCC6.3.0",
  "DerivedVendorReportedEchoSpacing": 0.000690012,
  "DeviceSerialNumber": "35422",
  "DwellTime": 2.6e-06,
  "EchoTime": 0.03,
  "EffectiveEchoSpacing": 0.000345006,
  "FlipAngle": 85,
  "ImageComments": "Unaliased_MB4_PE4_LB",
  "ImageOrientationPatientDICOM": [0.999659, 0.00154856, 0.0260543, 2.0816e-10, 0.998238, -0.0593312],
  "ImageType": [
    "ORIGINAL",
    "PRIMARY",
    "FMRI",
    "NONE",
    "MB",
    "ND",
    "MOSAIC"
],
  "ImagingFrequency": 123.177,
  "InPlanePhaseEncodingDirectionDICOM": "ROW",
  "InstitutionAddress": "kwanakro_599_C6F879_Seoul_KR_ZIP",
  "InstitutionName": "SNUBIC",
  "InstitutionalDepartmentName": "Department",
  "MRAcquisitionType": "2D",
  "MagneticFieldStrength": 3,
  "Manufacturer": "Siemens",
  "ManufacturersModelName": "TrioTim",
  "Modality": "MR",
  "MultibandAccelerationFactor": 4,
  "ParallelReductionFactorInPlane": 2,
  "PartialFourier": 1,
  "PatientPosition": "HFS",
  "PercentPhaseFOV": 100,
  "PhaseEncodingDirection": "i-",
  "PhaseEncodingSteps": 110,
  "PhaseResolution": 1,
  "PixelBandwidth": 1748,
  "ProcedureStepDescription": "SNU_SAVED",
  "ProtocolName": "WMGNG1_MB4_LR_SBRef",
  "PulseSequenceDetails": "%CustomerSeq%_cmrr_mbep2d_bold",
  "ReceiveCoilName": "32Ch_Head",
  "ReconMatrixPE": 110,
  "RefLinesPE": 32,
  "RepetitionTime": 1.5,
  "SAR": 0.138198,
  "ScanOptions": "FS",
  "ScanningSequence": "EP",
  "SequenceName": "epfid2d1_110",
  "SequenceVariant": "SK_SS",
  "SeriesDescription": "WMGNG1_MB4_LR_SBRef",
  "SeriesNumber": 15,
  "ShimSetting": [-4130, -29714, -2072, 482, -28, 528, 85, -23],
  "SliceThickness": 2.3,
  "SliceTiming": [0, 0.6575, 1.3175, 0.47, 1.1275, 0.2825, 0.94, 0.0925, 0.7525, 1.41, 0.5625, 1.2225, 0.375, 1.035, 0.1875, 0.845, 0, 0.6575, 1.3175, 0.47, 1.1275, 0.2825, 0.94, 0.0925, 0.7525, 1.41, 0.5625, 1.2225, 0.375, 1.035, 0.1875, 0.845, 0, 0.6575, 1.3175, 0.47, 1.1275, 0.2825, 0.94, 0.0925, 0.7525, 1.41, 0.5625, 1.2225, 0.375, 1.035, 0.1875, 0.845, 0, 0.6575, 1.3175, 0.47, 1.1275, 0.2825, 0.94, 0.0925, 0.7525, 1.41, 0.5625, 1.2225, 0.375, 1.035, 0.1875, 0.845],
  "SoftwareVersions": "syngo_MR_B17",
  "SpacingBetweenSlices": 2.3,
  "StationName": "MRC35422",
  "TaskName": "wmgng",
  "TotalReadoutTime": 0.0376057,
  "TxRefAmp": 331.236,
  "dcmmeta_affine": [
    [-2.326479911804199, 4.844441514606501e-10, 0.06003064289689064, 126.78115844726562],
    [-0.003603920806199312, 2.3231728076934814, -0.13641519844532013, -112.4073257446289],
    [0.060635458678007126, 0.13807979226112366, 2.295166254043579, -51.103614807128906],
    [0.0, 0.0, 0.0, 1.0]
],
  "dcmmeta_reorient_transform": [
    [0.0, -1.0, 0.0, 109.0],
    [1.0, 0.0, 0.0, 0.0],
    [0.0, 0.0, 1.0, 0.0],
    [0.0, 0.0, 0.0, 1.0]
],
  "dcmmeta_shape": [110, 110, 64, 357],
  "dcmmeta_slice_dim": 2,
  "dcmmeta_version": 0.6,
  "global": {
    "const": {
      "AcquisitionMatrix": [0, 110, 110, 0],
      "AngioFlag": "N",
      "BitsAllocated": 16,
      "BitsStored": 12,
      "Columns": 880,
      "EchoNumbers": 1,
      "EchoTime": 30.0,
      "EchoTrainLength": 1,
      "FlipAngle": 85.0,
      "HighBit": 11,
      "ImageOrientationPatient": [0.99965932968292, 0.00154855977256, 0.02605429984724, 2.081596e-10, 0.99823835472272, -0.0593311651704],
      "ImagePositionPatient": [-1022.4758898186, -1036.6275627029, -6.236846029633],
      "ImageType": [
        "ORIGINAL",
        "PRIMARY",
        "FMRI",
        "NONE",
        "MB",
        "ND",
        "MOSAIC"
],
      "ImagedNucleus": "1H",
      "ImagingFrequency": 123.177291,
      "InPlanePhaseEncodingDirection": "ROW",
      "MRAcquisitionType": "2D",
      "MagneticFieldStrength": 3.0,
      "Manufacturer": "SIEMENS",
      "ManufacturerModelName": "TrioTim",
      "Modality": "MR",
      "NumberOfAverages": 1.0,
      "NumberOfPhaseEncodingSteps": 110,
      "PercentPhaseFieldOfView": 100.0,
      "PercentSampling": 100.0,
      "PerformedProcedureStepStartTime": "140355.718000",
      "PhotometricInterpretation": "MONOCHROME2",
      "PixelBandwidth": 1748.0,
      "PixelRepresentation": 0,
      "PixelSpacing": [2.3272726535797, 2.3272726535797],
      "ProtocolName": "WMGNG1_MB4_LR_SBRef",
      "ReferencedPerformedProcedureStepSequence": [
        {
          "ReferencedSOPClassUID": "1.2.840.10008.3.1.2.3.3",
          "ReferencedSOPInstanceUID": "1.3.12.2.1107.5.2.32.35422.30000020082501030062500000001"}
],
      "RepetitionTime": 1500.0,
      "Rows": 880,
      "SAR": 0.13819755782546,
      "SamplesPerPixel": 1,
      "ScanOptions": "FS",
      "ScanningSequence": "EP",
      "SequenceName": "epfid2d1_110",
      "SequenceVariant": [
        "SK",
        "SS"
],
      "SeriesDescription": "WMGNG1_MB4_LR_SBRef",
      "SeriesNumber": 15,
      "SeriesTime": "144037.718000",
      "SliceLocation": -41.020200136171,
      "SliceThickness": 2.2999999523163,
      "SmallestImagePixelValue": 0,
      "SoftwareVersions": "syngo MR B17",
      "SpacingBetweenSlices": 2.3000000818389,
      "SpecificCharacterSet": "ISO_IR 100",
      "StudyID": "1",
      "StudyTime": "140355.671000",
      "TransmitCoilName": "Body",
      "VariableFlipAngleFlag": "N",
      "WindowCenterWidthExplanation": "Algo1",
      "dBdt": 0.0},
    "slices": {}
  },
  "time": {
    "samples": {
      "AcquisitionNumber": [1, 2, 3, 4, 5, 6, 7, 8, 9, 10, 11, 12, 13, 14, 15, 16, 17, 18, 19, 20, 21, 22, 23, 24, 25, 26, 27, 28, 29, 30, 31, 32, 33, 34, 35, 36, 37, 38, 39, 40, 41, 42, 43, 44, 45, 46, 47, 48, 49, 50, 51, 52, 53, 54, 55, 56, 57, 58, 59, 60, 61, 62, 63, 64, 65, 66, 67, 68, 69, 70, 71, 72, 73, 74, 75, 76, 77, 78, 79, 80, 81, 82, 83, 84, 85, 86, 87, 88, 89, 90, 91, 92, 93, 94, 95, 96, 97, 98, 99, 100, 101, 102, 103, 104, 105, 106, 107, 108, 109, 110, 111, 112, 113, 114, 115, 116, 117, 118, 119, 120, 121, 122, 123, 124, 125, 126, 127, 128, 129, 130, 131, 132, 133, 134, 135, 136, 137, 138, 139, 140, 141, 142, 143, 144, 145, 146, 147, 148, 149, 150, 151, 152, 153, 154, 155, 156, 157, 158, 159, 160, 161, 162, 163, 164, 165, 166, 167, 168, 169, 170, 171, 172, 173, 174, 175, 176, 177, 178, 179, 180, 181, 182, 183, 184, 185, 186, 187, 188, 189, 190, 191, 192, 193, 194, 195, 196, 197, 198, 199, 200, 201, 202, 203, 204, 205, 206, 207, 208, 209, 210, 211, 212, 213, 214, 215, 216, 217, 218, 219, 220, 221, 222, 223, 224, 225, 226, 227, 228, 229, 230, 231, 232, 233, 234, 235, 236, 237, 238, 239, 240, 241, 242, 243, 244, 245, 246, 247, 248, 249, 250, 251, 252, 253, 254, 255, 256, 257, 258, 259, 260, 261, 262, 263, 264, 265, 266, 267, 268, 269, 270, 271, 272, 273, 274, 275, 276, 277, 278, 279, 280, 281, 282, 283, 284, 285, 286, 287, 288, 289, 290, 291, 292, 293, 294, 295, 296, 297, 298, 299, 300, 301, 302, 303, 304, 305, 306, 307, 308, 309, 310, 311, 312, 313, 314, 315, 316, 317, 318, 319, 320, 321, 322, 323, 324, 325, 326, 327, 328, 329, 330, 331, 332, 333, 334, 335, 336, 337, 338, 339, 340, 341, 342, 343, 344, 345, 346, 347, 348, 349, 350, 351, 352, 353, 354, 355, 356, 357],
      "AcquisitionTime": ["143353.897500", "143355.402500", "143356.907500", "143358.415000", "143359.920000", "143401.427500", "143402.932500", "143404.437500", "143405.945000", "143407.450000", "143408.957500", "143410.462500", "143411.970000", "143413.475000", "143414.980000", "143416.487500", "143417.992500", "143419.500000", "143421.005000", "143422.510000", "143424.017500", "143425.522500", "143427.030000", "143428.535000", "143430.040000", "143431.547500", "143433.052500", "143434.560000", "143436.065000", "143437.570000", "143439.077500", "143440.582500", "143442.090000", "143443.595000", "143445.102500", "143446.607500", "143448.112500", "143449.620000", "143451.125000", "143452.632500", "143454.137500", "143455.642500", "143457.150000", "143458.655000", "143500.162500", "143501.667500", "143503.172500", "143504.680000", "143506.185000", "143507.692500", "143509.197500", "143510.702500", "143512.210000", "143513.715000", "143515.222500", "143516.727500", "143518.235000", "143519.740000", "143521.245000", "143522.752500", "143524.257500", "143525.765000", "143527.270000", "143528.775000", "143530.282500", "143531.787500", "143533.295000", "143534.800000", "143536.305000", "143537.812500", "143539.317500", "143540.825000", "143542.330000", "143543.837500", "143545.342500", "143546.847500", "143548.355000", "143549.860000", "143551.367500", "143552.872500", "143554.377500", "143555.885000", "143557.390000", "143558.897500", "143600.402500", "143601.907500", "143603.415000", "143604.920000", "143606.427500", "143607.932500", "143609.437500", "143610.945000", "143612.450000", "143613.957500", "143615.462500", "143616.970000", "143618.475000", "143619.980000", "143621.487500", "143622.992500", "143624.500000", "143626.005000", "143627.510000", "143629.017500", "143630.522500", "143632.030000", "143633.535000", "143635.040000", "143636.547500", "143638.052500", "143639.560000", "143641.065000", "143642.570000", "143644.077500", "143645.582500", "143647.090000", "143648.595000", "143650.102500", "143651.607500", "143653.112500", "143654.620000", "143656.125000", "143657.632500", "143659.137500", "143700.642500", "143702.150000", "143703.655000", "143705.162500", "143706.667500", "143708.172500", "143709.680000", "143711.185000", "143712.692500", "143714.197500", "143715.702500", "143717.210000", "143718.715000", "143720.222500", "143721.727500", "143723.235000", "143724.740000", "143726.245000", "143727.752500", "143729.257500", "143730.765000", "143732.270000", "143733.775000", "143735.282500", "143736.787500", "143738.295000", "143739.800000", "143741.305000", "143742.812500", "143744.317500", "143745.825000", "143747.330000", "143748.837500", "143750.342500", "143751.847500", "143753.355000", "143754.860000", "143756.367500", "143757.872500", "143759.377500", "143800.885000", "143802.390000", "143803.897500", "143805.402500", "143806.907500", "143808.415000", "143809.920000", "143811.427500", "143812.932500", "143814.437500", "143815.945000", "143817.450000", "143818.957500", "143820.462500", "143821.970000", "143823.475000", "143824.980000", "143826.487500", "143827.992500", "143829.500000", "143831.005000", "143832.510000", "143834.017500", "143835.522500", "143837.030000", "143838.535000", "143840.040000", "143841.547500", "143843.052500", "143844.560000", "143846.065000", "143847.570000", "143849.077500", "143850.582500", "143852.090000", "143853.595000", "143855.102500", "143856.607500", "143858.112500", "143859.620000", "143901.125000", "143902.632500", "143904.137500", "143905.642500", "143907.150000", "143908.655000", "143910.162500", "143911.667500", "143913.172500", "143914.680000", "143916.185000", "143917.692500", "143919.197500", "143920.702500", "143922.210000", "143923.715000", "143925.222500", "143926.727500", "143928.235000", "143929.740000", "143931.245000", "143932.752500", "143934.257500", "143935.765000", "143937.270000", "143938.775000", "143940.282500", "143941.787500", "143943.295000", "143944.800000", "143946.305000", "143947.812500", "143949.317500", "143950.825000", "143952.330000", "143953.837500", "143955.342500", "143956.847500", "143958.355000", "143959.860000", "144001.367500", "144002.872500", "144004.377500", "144005.885000", "144007.390000", "144008.897500", "144010.402500", "144011.907500", "144013.415000", "144014.920000", "144016.427500", "144017.932500", "144019.437500", "144020.945000", "144022.450000", "144023.957500", "144025.462500", "144026.970000", "144028.475000", "144029.980000", "144031.487500", "144032.992500", "144034.500000", "144036.005000", "144037.510000", "144039.017500", "144040.522500", "144042.030000", "144043.535000", "144045.040000", "144046.547500", "144048.052500", "144049.560000", "144051.065000", "144052.570000", "144054.077500", "144055.582500", "144057.090000", "144058.595000", "144100.102500", "144101.607500", "144103.112500", "144104.620000", "144106.125000", "144107.632500", "144109.137500", "144110.642500", "144112.150000", "144113.655000", "144115.162500", "144116.667500", "144118.172500", "144119.680000", "144121.185000", "144122.692500", "144124.197500", "144125.702500", "144127.210000", "144128.715000", "144130.222500", "144131.727500", "144133.235000", "144134.740000", "144136.245000", "144137.752500", "144139.257500", "144140.765000", "144142.270000", "144143.775000", "144145.282500", "144146.787500", "144148.295000", "144149.800000", "144151.305000", "144152.812500", "144154.317500", "144155.825000", "144157.330000", "144158.837500", "144200.342500", "144201.847500", "144203.355000", "144204.860000", "144206.367500", "144207.872500", "144209.377500", "144210.885000", "144212.390000", "144213.897500", "144215.402500", "144216.907500", "144218.415000", "144219.920000", "144221.427500", "144222.932500", "144224.437500", "144225.945000", "144227.450000", "144228.957500", "144230.462500", "144231.970000", "144233.475000", "144234.980000", "144236.487500", "144237.992500", "144239.500000", "144241.005000", "144242.510000", "144244.017500", "144245.522500", "144247.030000", "144248.535000", "144250.040000"],
      "ContentTime": ["144037.718000", "144039.218000", "144041.218000", "144043.218000", "144045.218000", "144047.218000", "144049.718000", "144051.718000", "144054.718000", "144056.718000", "144058.718000", "144101.218000", "144103.718000", "144105.718000", "144107.718000", "144110.218000", "144112.218000", "144114.718000", "144117.218000", "144119.718000", "144121.718000", "144123.718000", "144126.718000", "144128.218000", "144130.718000", "144133.218000", "144135.218000", "144137.718000", "144139.718000", "144142.218000", "144144.218000", "144147.218000", "144149.218000", "144152.218000", "144153.718000", "144156.718000", "144158.718000", "144200.718000", "144203.218000", "144205.218000", "144207.718000", "144209.718000", "144211.718000", "144214.218000", "144216.718000", "144218.718000", "144221.218000", "144223.218000", "144225.218000", "144228.218000", "144230.718000", "144232.718000", "144235.218000", "144237.718000", "144240.218000", "144242.218000", "144244.218000", "144246.718000", "144248.718000", "144251.218000", "144253.718000", "144256.218000", "144258.718000", "144300.718000", "144303.218000", "144305.218000", "144307.218000", "144310.218000", "144312.218000", "144314.718000", "144317.218000", "144319.218000", "144321.718000", "144323.718000", "144326.218000", "144328.218000", "144330.718000", "144333.218000", "144335.218000", "144337.718000", "144339.718000", "144342.218000", "144344.718000", "144346.718000", "144349.218000", "144351.718000", "144354.218000", "144356.218000", "144358.718000", "144401.218000", "144403.718000", "144405.718000", "144408.718000", "144410.718000", "144413.218000", "144415.718000", "144417.718000", "144419.718000", "144422.718000", "144424.718000", "144427.218000", "144429.718000", "144432.218000", "144434.218000", "144436.718000", "144439.218000", "144442.218000", "144443.718000", "144446.218000", "144448.218000", "144450.718000", "144452.718000", "144455.218000", "144457.718000", "144459.718000", "144502.218000", "144504.218000", "144506.718000", "144508.718000", "144511.218000", "144513.218000", "144515.718000", "144517.718000", "144520.218000", "144522.218000", "144524.718000", "144527.218000", "144529.218000", "144532.218000", "144534.218000", "144536.718000", "144538.718000", "144541.218000", "144543.718000", "144546.218000", "144548.218000", "144550.218000", "144553.218000", "144555.718000", "144557.718000", "144559.718000", "144602.218000", "144604.718000", "144606.718000", "144609.718000", "144611.218000", "144613.718000", "144616.218000", "144618.218000", "144620.718000", "144622.718000", "144625.218000", "144627.718000", "144629.718000", "144632.218000", "144634.718000", "144637.218000", "144638.718000", "144641.718000", "144643.718000", "144646.218000", "144648.218000", "144650.218000", "144652.718000", "144655.218000", "144657.718000", "144700.218000", "144702.218000", "144704.218000", "144706.218000", "144709.218000", "144711.218000", "144713.718000", "144715.718000", "144717.718000", "144720.718000", "144722.718000", "144725.218000", "144727.718000", "144729.718000", "144732.218000", "144734.218000", "144736.718000", "144738.718000", "144741.718000", "144743.718000", "144745.718000", "144747.718000", "144750.218000", "144752.218000", "144754.718000", "144756.718000", "144759.218000", "144801.718000", "144803.718000", "144806.218000", "144808.718000", "144810.718000", "144813.218000", "144815.218000", "144817.718000", "144820.218000", "144822.218000", "144824.718000", "144827.218000", "144829.218000", "144831.718000", "144834.218000", "144836.218000", "144838.718000", "144840.718000", "144843.218000", "144845.218000", "144847.718000", "144850.218000", "144852.218000", "144854.718000", "144856.218000", "144858.718000", "144901.218000", "144904.218000", "144906.218000", "144908.218000", "144910.218000", "144913.218000", "144915.218000", "144917.718000", "144919.718000", "144922.218000", "144924.218000", "144926.718000", "144929.218000", "144931.218000", "144933.718000", "144936.218000", "144938.218000", "144940.718000", "144942.718000", "144945.218000", "144947.218000", "144949.718000", "144952.218000", "144954.218000", "144956.718000", "144958.718000", "145001.218000", "145003.718000", "145006.218000", "145007.718000", "145010.218000", "145012.718000", "145014.718000", "145017.218000", "145019.218000", "145021.718000", "145024.218000", "145026.718000", "145028.718000", "145031.218000", "145033.718000", "145036.218000", "145038.218000", "145040.218000", "145042.718000", "145045.218000", "145047.718000", "145050.218000", "145052.218000", "145054.218000", "145056.718000", "145059.218000", "145101.218000", "145103.218000", "145105.718000", "145107.718000", "145110.218000", "145112.218000", "145114.718000", "145117.218000", "145119.218000", "145121.218000", "145123.718000", "145126.218000", "145128.218000", "145130.718000", "145132.718000", "145135.218000", "145137.718000", "145139.718000", "145142.718000", "145144.718000", "145146.718000", "145149.218000", "145151.218000", "145153.718000", "145155.718000", "145158.218000", "145200.718000", "145203.218000", "145205.218000", "145207.718000", "145209.718000", "145212.218000", "145214.718000", "145216.718000", "145219.218000", "145221.718000", "145223.718000", "145225.718000", "145228.218000", "145230.218000", "145232.718000", "145235.218000", "145237.218000", "145239.718000", "145242.218000", "145244.718000", "145246.718000", "145248.718000", "145251.718000", "145253.218000", "145255.718000", "145258.718000", "145300.718000", "145303.218000", "145305.218000", "145307.718000", "145309.718000", "145311.718000", "145314.218000", "145316.718000", "145319.218000", "145321.218000", "145323.718000", "145325.718000", "145328.218000", "145330.718000", "145332.718000", "145335.218000", "145337.218000", "145339.218000", "145341.718000", "145344.218000", "145346.218000", "145348.718000", "145351.218000", "145353.218000", "145355.218000", "145357.718000", "145400.218000", "145402.718000", "145404.718000", "145407.218000", "145409.718000", "145411.218000", "145413.718000", "145416.218000"],
      "DataSetTrailingPadding": [
        "\u0000\u0000\u0000\u0000\u0000\u0000\u0000\u0000\u0000\u0000\u0000\u0000\u0000\u0000\u0000\u0000\u0000\u0000\u0000\u0000\u0000\u0000\u0000\u0000\u0000\u0000\u0000\u0000\u0000\u0000\u0000\u0000\u0000\u0000\u0000\u0000\u0000\u0000\u0000\u0000\u0000\u0000\u0000\u0000\u0000\u0000\u0000\u0000\u0000\u0000\u0000\u0000\u0000\u0000\u0000\u0000\u0000\u0000\u0000\u0000\u0000\u0000\u0000\u0000\u0000\u0000\u0000\u0000\u0000\u0000\u0000\u0000\u0000\u0000\u0000\u0000\u0000\u0000\u0000\u0000\u0000\u0000\u0000\u0000\u0000\u0000\u0000\u0000\u0000\u0000\u0000\u0000",
        "\u0000\u0000\u0000\u0000\u0000\u0000\u0000\u0000\u0000\u0000\u0000\u0000\u0000\u0000\u0000\u0000\u0000\u0000\u0000\u0000\u0000\u0000\u0000\u0000\u0000\u0000\u0000\u0000\u0000\u0000\u0000\u0000\u0000\u0000\u0000\u0000\u0000\u0000\u0000\u0000\u0000\u0000\u0000\u0000\u0000\u0000\u0000\u0000\u0000\u0000\u0000\u0000\u0000\u0000\u0000\u0000\u0000\u0000\u0000\u0000\u0000\u0000\u0000\u0000\u0000\u0000\u0000\u0000\u0000\u0000\u0000\u0000\u0000\u0000\u0000\u0000\u0000\u0000\u0000\u0000\u0000\u0000\u0000\u0000\u0000\u0000\u0000\u0000\u0000\u0000",
        "\u0000\u0000\u0000\u0000\u0000\u0000\u0000\u0000\u0000\u0000\u0000\u0000\u0000\u0000\u0000\u0000\u0000\u0000\u0000\u0000\u0000\u0000\u0000\u0000\u0000\u0000\u0000\u0000\u0000\u0000\u0000\u0000\u0000\u0000\u0000\u0000\u0000\u0000\u0000\u0000\u0000\u0000\u0000\u0000\u0000\u0000\u0000\u0000\u0000\u0000\u0000\u0000\u0000\u0000\u0000\u0000\u0000\u0000\u0000\u0000\u0000\u0000\u0000\u0000\u0000\u0000\u0000\u0000\u0000\u0000\u0000\u0000\u0000\u0000\u0000\u0000\u0000\u0000\u0000\u0000\u0000\u0000\u0000\u0000\u0000\u0000\u0000\u0000\u0000\u0000",
        "\u0000\u0000\u0000\u0000\u0000\u0000\u0000\u0000\u0000\u0000\u0000\u0000\u0000\u0000\u0000\u0000\u0000\u0000\u0000\u0000\u0000\u0000\u0000\u0000\u0000\u0000\u0000\u0000\u0000\u0000\u0000\u0000\u0000\u0000\u0000\u0000\u0000\u0000\u0000\u0000\u0000\u0000\u0000\u0000\u0000\u0000\u0000\u0000\u0000\u0000\u0000\u0000\u0000\u0000\u0000\u0000\u0000\u0000\u0000\u0000\u0000\u0000\u0000\u0000\u0000\u0000\u0000\u0000\u0000\u0000\u0000\u0000\u0000\u0000\u0000\u0000\u0000\u0000\u0000\u0000\u0000\u0000\u0000\u0000\u0000\u0000\u0000\u0000\u0000\u0000",
        "\u0000\u0000\u0000\u0000\u0000\u0000\u0000\u0000\u0000\u0000\u0000\u0000\u0000\u0000\u0000\u0000\u0000\u0000\u0000\u0000\u0000\u0000\u0000\u0000\u0000\u0000\u0000\u0000\u0000\u0000\u0000\u0000\u0000\u0000\u0000\u0000\u0000\u0000\u0000\u0000\u0000\u0000\u0000\u0000\u0000\u0000\u0000\u0000\u0000\u0000\u0000\u0000\u0000\u0000\u0000\u0000\u0000\u0000\u0000\u0000\u0000\u0000\u0000\u0000\u0000\u0000\u0000\u0000\u0000\u0000\u0000\u0000\u0000\u0000\u0000\u0000\u0000\u0000\u0000\u0000\u0000\u0000\u0000\u0000\u0000\u0000\u0000\u0000\u0000\u0000\u0000\u0000",
        "\u0000\u0000\u0000\u0000\u0000\u0000\u0000\u0000\u0000\u0000\u0000\u0000\u0000\u0000\u0000\u0000\u0000\u0000\u0000\u0000\u0000\u0000\u0000\u0000\u0000\u0000\u0000\u0000\u0000\u0000\u0000\u0000\u0000\u0000\u0000\u0000\u0000\u0000\u0000\u0000\u0000\u0000\u0000\u0000\u0000\u0000\u0000\u0000\u0000\u0000\u0000\u0000\u0000\u0000\u0000\u0000\u0000\u0000\u0000\u0000\u0000\u0000\u0000\u0000\u0000\u0000\u0000\u0000\u0000\u0000\u0000\u0000\u0000\u0000\u0000\u0000\u0000\u0000\u0000\u0000\u0000\u0000\u0000\u0000\u0000\u0000\u0000\u0000\u0000\u0000\u0000\u0000",
        "\u0000\u0000\u0000\u0000\u0000\u0000\u0000\u0000\u0000\u0000\u0000\u0000\u0000\u0000\u0000\u0000\u0000\u0000\u0000\u0000\u0000\u0000\u0000\u0000\u0000\u0000\u0000\u0000\u0000\u0000\u0000\u0000\u0000\u0000\u0000\u0000\u0000\u0000\u0000\u0000\u0000\u0000\u0000\u0000\u0000\u0000\u0000\u0000\u0000\u0000\u0000\u0000\u0000\u0000\u0000\u0000\u0000\u0000\u0000\u0000\u0000\u0000\u0000\u0000\u0000\u0000\u0000\u0000\u0000\u0000\u0000\u0000\u0000\u0000\u0000\u0000\u0000\u0000\u0000\u0000\u0000\u0000\u0000\u0000\u0000\u0000\u0000\u0000\u0000\u0000",
        "\u0000\u0000\u0000\u0000\u0000\u0000\u0000\u0000\u0000\u0000\u0000\u0000\u0000\u0000\u0000\u0000\u0000\u0000\u0000\u0000\u0000\u0000\u0000\u0000\u0000\u0000\u0000\u0000\u0000\u0000\u0000\u0000\u0000\u0000\u0000\u0000\u0000\u0000\u0000\u0000\u0000\u0000\u0000\u0000\u0000\u0000\u0000\u0000\u0000\u0000\u0000\u0000\u0000\u0000\u0000\u0000\u0000\u0000\u0000\u0000\u0000\u0000\u0000\u0000\u0000\u0000\u0000\u0000\u0000\u0000\u0000\u0000\u0000\u0000\u0000\u0000\u0000\u0000\u0000\u0000\u0000\u0000\u0000\u0000\u0000\u0000\u0000\u0000\u0000\u0000",
        "\u0000\u0000\u0000\u0000\u0000\u0000\u0000\u0000\u0000\u0000\u0000\u0000\u0000\u0000\u0000\u0000\u0000\u0000\u0000\u0000\u0000\u0000\u0000\u0000\u0000\u0000\u0000\u0000\u0000\u0000\u0000\u0000\u0000\u0000\u0000\u0000\u0000\u0000\u0000\u0000\u0000\u0000\u0000\u0000\u0000\u0000\u0000\u0000\u0000\u0000\u0000\u0000\u0000\u0000\u0000\u0000\u0000\u0000\u0000\u0000\u0000\u0000\u0000\u0000\u0000\u0000\u0000\u0000\u0000\u0000\u0000\u0000\u0000\u0000\u0000\u0000\u0000\u0000\u0000\u0000\u0000\u0000\u0000\u0000\u0000\u0000\u0000\u0000\u0000\u0000",
        "\u0000\u0000\u0000\u0000\u0000\u0000\u0000\u0000\u0000\u0000\u0000\u0000\u0000\u0000\u0000\u0000\u0000\u0000\u0000\u0000\u0000\u0000\u0000\u0000\u0000\u0000\u0000\u0000\u0000\u0000\u0000\u0000\u0000\u0000\u0000\u0000\u0000\u0000\u0000\u0000\u0000\u0000\u0000\u0000\u0000\u0000\u0000\u0000\u0000\u0000\u0000\u0000\u0000\u0000\u0000\u0000\u0000\u0000\u0000\u0000\u0000\u0000\u0000\u0000\u0000\u0000\u0000\u0000\u0000\u0000\u0000\u0000\u0000\u0000\u0000\u0000\u0000\u0000\u0000\u0000\u0000\u0000\u0000\u0000\u0000\u0000\u0000\u0000",
        "\u0000\u0000\u0000\u0000\u0000\u0000\u0000\u0000\u0000\u0000\u0000\u0000\u0000\u0000\u0000\u0000\u0000\u0000\u0000\u0000\u0000\u0000\u0000\u0000\u0000\u0000\u0000\u0000\u0000\u0000\u0000\u0000\u0000\u0000\u0000\u0000\u0000\u0000\u0000\u0000\u0000\u0000\u0000\u0000\u0000\u0000\u0000\u0000\u0000\u0000\u0000\u0000\u0000\u0000\u0000\u0000\u0000\u0000\u0000\u0000\u0000\u0000\u0000\u0000\u0000\u0000\u0000\u0000\u0000\u0000\u0000\u0000\u0000\u0000\u0000\u0000\u0000\u0000\u0000\u0000\u0000\u0000\u0000\u0000\u0000\u0000\u0000\u0000",
        "\u0000\u0000\u0000\u0000\u0000\u0000\u0000\u0000\u0000\u0000\u0000\u0000\u0000\u0000\u0000\u0000\u0000\u0000\u0000\u0000\u0000\u0000\u0000\u0000\u0000\u0000\u0000\u0000\u0000\u0000\u0000\u0000\u0000\u0000\u0000\u0000\u0000\u0000\u0000\u0000\u0000\u0000\u0000\u0000\u0000\u0000\u0000\u0000\u0000\u0000\u0000\u0000\u0000\u0000\u0000\u0000\u0000\u0000\u0000\u0000\u0000\u0000\u0000\u0000\u0000\u0000\u0000\u0000\u0000\u0000\u0000\u0000\u0000\u0000\u0000\u0000\u0000\u0000\u0000\u0000\u0000\u0000\u0000\u0000\u0000\u0000",
        "\u0000\u0000\u0000\u0000\u0000\u0000\u0000\u0000\u0000\u0000\u0000\u0000\u0000\u0000\u0000\u0000\u0000\u0000\u0000\u0000\u0000\u0000\u0000\u0000\u0000\u0000\u0000\u0000\u0000\u0000\u0000\u0000\u0000\u0000\u0000\u0000\u0000\u0000\u0000\u0000\u0000\u0000\u0000\u0000\u0000\u0000\u0000\u0000\u0000\u0000\u0000\u0000\u0000\u0000\u0000\u0000\u0000\u0000\u0000\u0000\u0000\u0000\u0000\u0000\u0000\u0000\u0000\u0000\u0000\u0000\u0000\u0000\u0000\u0000\u0000\u0000\u0000\u0000\u0000\u0000\u0000\u0000\u0000\u0000\u0000\u0000\u0000\u0000",
        "\u0000\u0000\u0000\u0000\u0000\u0000\u0000\u0000\u0000\u0000\u0000\u0000\u0000\u0000\u0000\u0000\u0000\u0000\u0000\u0000\u0000\u0000\u0000\u0000\u0000\u0000\u0000\u0000\u0000\u0000\u0000\u0000\u0000\u0000\u0000\u0000\u0000\u0000\u0000\u0000\u0000\u0000\u0000\u0000\u0000\u0000\u0000\u0000\u0000\u0000\u0000\u0000\u0000\u0000\u0000\u0000\u0000\u0000\u0000\u0000\u0000\u0000\u0000\u0000\u0000\u0000\u0000\u0000\u0000\u0000\u0000\u0000\u0000\u0000\u0000\u0000\u0000\u0000\u0000\u0000\u0000\u0000\u0000\u0000\u0000\u0000\u0000\u0000",
        "\u0000\u0000\u0000\u0000\u0000\u0000\u0000\u0000\u0000\u0000\u0000\u0000\u0000\u0000\u0000\u0000\u0000\u0000\u0000\u0000\u0000\u0000\u0000\u0000\u0000\u0000\u0000\u0000\u0000\u0000\u0000\u0000\u0000\u0000\u0000\u0000\u0000\u0000\u0000\u0000\u0000\u0000\u0000\u0000\u0000\u0000\u0000\u0000\u0000\u0000\u0000\u0000\u0000\u0000\u0000\u0000\u0000\u0000\u0000\u0000\u0000\u0000\u0000\u0000\u0000\u0000\u0000\u0000\u0000\u0000\u0000\u0000\u0000\u0000\u0000\u0000\u0000\u0000\u0000\u0000\u0000\u0000\u0000\u0000\u0000\u0000\u0000\u0000",
        "\u0000\u0000\u0000\u0000\u0000\u0000\u0000\u0000\u0000\u0000\u0000\u0000\u0000\u0000\u0000\u0000\u0000\u0000\u0000\u0000\u0000\u0000\u0000\u0000\u0000\u0000\u0000\u0000\u0000\u0000\u0000\u0000\u0000\u0000\u0000\u0000\u0000\u0000\u0000\u0000\u0000\u0000\u0000\u0000\u0000\u0000\u0000\u0000\u0000\u0000\u0000\u0000\u0000\u0000\u0000\u0000\u0000\u0000\u0000\u0000\u0000\u0000\u0000\u0000\u0000\u0000\u0000\u0000\u0000\u0000\u0000\u0000\u0000\u0000\u0000\u0000\u0000\u0000\u0000\u0000\u0000\u0000\u0000\u0000\u0000\u0000\u0000\u0000",
        "\u0000\u0000\u0000\u0000\u0000\u0000\u0000\u0000\u0000\u0000\u0000\u0000\u0000\u0000\u0000\u0000\u0000\u0000\u0000\u0000\u0000\u0000\u0000\u0000\u0000\u0000\u0000\u0000\u0000\u0000\u0000\u0000\u0000\u0000\u0000\u0000\u0000\u0000\u0000\u0000\u0000\u0000\u0000\u0000\u0000\u0000\u0000\u0000\u0000\u0000\u0000\u0000\u0000\u0000\u0000\u0000\u0000\u0000\u0000\u0000\u0000\u0000\u0000\u0000\u0000\u0000\u0000\u0000\u0000\u0000\u0000\u0000\u0000\u0000\u0000\u0000\u0000\u0000\u0000\u0000\u0000\u0000\u0000\u0000\u0000\u0000",
        "\u0000\u0000\u0000\u0000\u0000\u0000\u0000\u0000\u0000\u0000\u0000\u0000\u0000\u0000\u0000\u0000\u0000\u0000\u0000\u0000\u0000\u0000\u0000\u0000\u0000\u0000\u0000\u0000\u0000\u0000\u0000\u0000\u0000\u0000\u0000\u0000\u0000\u0000\u0000\u0000\u0000\u0000\u0000\u0000\u0000\u0000\u0000\u0000\u0000\u0000\u0000\u0000\u0000\u0000\u0000\u0000\u0000\u0000\u0000\u0000\u0000\u0000\u0000\u0000\u0000\u0000\u0000\u0000\u0000\u0000\u0000\u0000\u0000\u0000\u0000\u0000\u0000\u0000\u0000\u0000\u0000\u0000\u0000\u0000\u0000\u0000",
        "\u0000\u0000\u0000\u0000\u0000\u0000\u0000\u0000\u0000\u0000\u0000\u0000\u0000\u0000\u0000\u0000\u0000\u0000\u0000\u0000\u0000\u0000\u0000\u0000\u0000\u0000\u0000\u0000\u0000\u0000\u0000\u0000\u0000\u0000\u0000\u0000\u0000\u0000\u0000\u0000\u0000\u0000\u0000\u0000\u0000\u0000\u0000\u0000\u0000\u0000\u0000\u0000\u0000\u0000\u0000\u0000\u0000\u0000\u0000\u0000\u0000\u0000\u0000\u0000\u0000\u0000\u0000\u0000\u0000\u0000\u0000\u0000\u0000\u0000\u0000\u0000\u0000\u0000\u0000\u0000\u0000\u0000\u0000\u0000\u0000\u0000\u0000\u0000",
