{
  "AcquisitionMatrixPE": 110,
  "AcquisitionNumber": 1,
  "AcquisitionTime": "14:45:18.072500",
  "BandwidthPerPixelPhaseEncode": 26.35,
  "BaseResolution": 110,
  "CoilString": "C:HEA;HEP",
  "ConversionSoftware": "dcm2niix",
  "ConversionSoftwareVersion": "v1.0.20190410  GCC6.3.0",
  "DerivedVendorReportedEchoSpacing": 0.000690012,
  "DeviceSerialNumber": "35422",
  "DwellTime": 2.6e-06,
  "EchoTime": 0.03,
  "EffectiveEchoSpacing": 0.000345006,
  "FlipAngle": 85,
  "ImageComments": "Unaliased_MB4_PE4_LB",
  "ImageOrientationPatientDICOM": [0.999659, 0.00154856, 0.0260543, 2.0816e-10, 0.998238, -0.0593312],
  "ImageType": [
    "ORIGINAL",
    "PRIMARY",
    "FMRI",
    "NONE",
    "MB",
    "ND",
    "MOSAIC"
],
  "ImagingFrequency": 123.177,
  "InPlanePhaseEncodingDirectionDICOM": "ROW",
  "InstitutionAddress": "kwanakro_599_C6F879_Seoul_KR_ZIP",
  "InstitutionName": "SNUBIC",
  "InstitutionalDepartmentName": "Department",
  "MRAcquisitionType": "2D",
  "MagneticFieldStrength": 3,
  "Manufacturer": "Siemens",
  "ManufacturersModelName": "TrioTim",
  "Modality": "MR",
  "MultibandAccelerationFactor": 4,
  "ParallelReductionFactorInPlane": 2,
  "PartialFourier": 1,
  "PatientPosition": "HFS",
  "PercentPhaseFOV": 100,
  "PhaseEncodingDirection": "i-",
  "PhaseEncodingSteps": 110,
  "PhaseResolution": 1,
  "PixelBandwidth": 1748,
  "ProcedureStepDescription": "SNU_SAVED",
  "ProtocolName": "WMGNG2_MB4_LR_SBRef",
  "PulseSequenceDetails": "%CustomerSeq%_cmrr_mbep2d_bold",
  "ReceiveCoilName": "32Ch_Head",
  "ReconMatrixPE": 110,
  "RefLinesPE": 32,
  "RepetitionTime": 1.5,
  "SAR": 0.13801,
  "ScanOptions": "FS",
  "ScanningSequence": "EP",
  "SequenceName": "epfid2d1_110",
  "SequenceVariant": "SK_SS",
  "SeriesDescription": "WMGNG2_MB4_LR_SBRef",
  "SeriesNumber": 20,
  "ShimSetting": [-4130, -29714, -2072, 482, -28, 528, 85, -23],
  "SliceThickness": 2.3,
  "SliceTiming": [0, 0.66, 1.3175, 0.47, 1.13, 0.2825, 0.9425, 0.095, 0.7525, 1.4125, 0.565, 1.225, 0.3775, 1.035, 0.19, 0.8475, 0, 0.66, 1.3175, 0.47, 1.13, 0.2825, 0.9425, 0.095, 0.7525, 1.4125, 0.565, 1.225, 0.3775, 1.035, 0.19, 0.8475, 0, 0.66, 1.3175, 0.47, 1.13, 0.2825, 0.9425, 0.095, 0.7525, 1.4125, 0.565, 1.225, 0.3775, 1.035, 0.19, 0.8475, 0, 0.66, 1.3175, 0.47, 1.13, 0.2825, 0.9425, 0.095, 0.7525, 1.4125, 0.565, 1.225, 0.3775, 1.035, 0.19, 0.8475],
  "SoftwareVersions": "syngo_MR_B17",
  "SpacingBetweenSlices": 2.3,
  "StationName": "MRC35422",
  "TaskName": "wmgng",
  "TotalReadoutTime": 0.0376057,
  "TxRefAmp": 331.236,
  "dcmmeta_affine": [
    [-2.326479911804199, 4.844441514606501e-10, 0.06003064289689064, 126.78115844726562],
    [-0.003603920806199312, 2.3231728076934814, -0.13641519844532013, -112.4073257446289],
    [0.060635458678007126, 0.13807979226112366, 2.295166254043579, -51.103614807128906],
    [0.0, 0.0, 0.0, 1.0]
],
  "dcmmeta_reorient_transform": [
    [0.0, -1.0, 0.0, 109.0],
    [1.0, 0.0, 0.0, 0.0],
    [0.0, 0.0, 1.0, 0.0],
    [0.0, 0.0, 0.0, 1.0]
],
  "dcmmeta_shape": [110, 110, 64, 357],
  "dcmmeta_slice_dim": 2,
  "dcmmeta_version": 0.6,
  "global": {
    "const": {
      "AcquisitionMatrix": [0, 110, 110, 0],
      "AngioFlag": "N",
      "BitsAllocated": 16,
      "BitsStored": 12,
      "Columns": 880,
      "EchoNumbers": 1,
      "EchoTime": 30.0,
      "EchoTrainLength": 1,
      "FlipAngle": 85.0,
      "HighBit": 11,
      "ImageOrientationPatient": [0.99965932968292, 0.00154855977256, 0.02605429984724, 2.081596e-10, 0.99823835472272, -0.0593311651704],
      "ImagePositionPatient": [-1022.4758898186, -1036.6275627029, -6.236846029633],
      "ImageType": [
        "ORIGINAL",
        "PRIMARY",
        "FMRI",
        "NONE",
        "MB",
        "ND",
        "MOSAIC"
],
      "ImagedNucleus": "1H",
      "ImagingFrequency": 123.177297,
      "InPlanePhaseEncodingDirection": "ROW",
      "MRAcquisitionType": "2D",
      "MagneticFieldStrength": 3.0,
      "Manufacturer": "SIEMENS",
      "ManufacturerModelName": "TrioTim",
      "Modality": "MR",
      "NumberOfAverages": 1.0,
      "NumberOfPhaseEncodingSteps": 110,
      "PercentPhaseFieldOfView": 100.0,
      "PercentSampling": 100.0,
      "PerformedProcedureStepStartTime": "140355.718000",
      "PhotometricInterpretation": "MONOCHROME2",
      "PixelBandwidth": 1748.0,
      "PixelRepresentation": 0,
      "PixelSpacing": [2.3272726535797, 2.3272726535797],
      "ProtocolName": "WMGNG2_MB4_LR_SBRef",
      "ReferencedPerformedProcedureStepSequence": [
        {
          "ReferencedSOPClassUID": "1.2.840.10008.3.1.2.3.3",
          "ReferencedSOPInstanceUID": "1.3.12.2.1107.5.2.32.35422.30000020082501030062500000001"}
],
      "RepetitionTime": 1500.0,
      "Rows": 880,
      "SAR": 0.13800997311807,
      "SamplesPerPixel": 1,
      "ScanOptions": "FS",
      "ScanningSequence": "EP",
      "SequenceName": "epfid2d1_110",
      "SequenceVariant": [
        "SK",
        "SS"
],
      "SeriesDescription": "WMGNG2_MB4_LR_SBRef",
      "SeriesNumber": 20,
      "SeriesTime": "145453.000000",
      "SliceLocation": -41.020200136171,
      "SliceThickness": 2.2999999523163,
      "SmallestImagePixelValue": 0,
      "SoftwareVersions": "syngo MR B17",
      "SpacingBetweenSlices": 2.3000000818389,
      "SpecificCharacterSet": "ISO_IR 100",
      "StudyID": "1",
      "StudyTime": "140355.671000",
      "TransmitCoilName": "Body",
      "VariableFlipAngleFlag": "N",
      "WindowCenterWidthExplanation": "Algo1",
      "dBdt": 0.0},
    "slices": {}
  },
  "time": {
    "samples": {
      "AcquisitionNumber": [1, 2, 3, 4, 5, 6, 7, 8, 9, 10, 11, 12, 13, 14, 15, 16, 17, 18, 19, 20, 21, 22, 23, 24, 25, 26, 27, 28, 29, 30, 31, 32, 33, 34, 35, 36, 37, 38, 39, 40, 41, 42, 43, 44, 45, 46, 47, 48, 49, 50, 51, 52, 53, 54, 55, 56, 57, 58, 59, 60, 61, 62, 63, 64, 65, 66, 67, 68, 69, 70, 71, 72, 73, 74, 75, 76, 77, 78, 79, 80, 81, 82, 83, 84, 85, 86, 87, 88, 89, 90, 91, 92, 93, 94, 95, 96, 97, 98, 99, 100, 101, 102, 103, 104, 105, 106, 107, 108, 109, 110, 111, 112, 113, 114, 115, 116, 117, 118, 119, 120, 121, 122, 123, 124, 125, 126, 127, 128, 129, 130, 131, 132, 133, 134, 135, 136, 137, 138, 139, 140, 141, 142, 143, 144, 145, 146, 147, 148, 149, 150, 151, 152, 153, 154, 155, 156, 157, 158, 159, 160, 161, 162, 163, 164, 165, 166, 167, 168, 169, 170, 171, 172, 173, 174, 175, 176, 177, 178, 179, 180, 181, 182, 183, 184, 185, 186, 187, 188, 189, 190, 191, 192, 193, 194, 195, 196, 197, 198, 199, 200, 201, 202, 203, 204, 205, 206, 207, 208, 209, 210, 211, 212, 213, 214, 215, 216, 217, 218, 219, 220, 221, 222, 223, 224, 225, 226, 227, 228, 229, 230, 231, 232, 233, 234, 235, 236, 237, 238, 239, 240, 241, 242, 243, 244, 245, 246, 247, 248, 249, 250, 251, 252, 253, 254, 255, 256, 257, 258, 259, 260, 261, 262, 263, 264, 265, 266, 267, 268, 269, 270, 271, 272, 273, 274, 275, 276, 277, 278, 279, 280, 281, 282, 283, 284, 285, 286, 287, 288, 289, 290, 291, 292, 293, 294, 295, 296, 297, 298, 299, 300, 301, 302, 303, 304, 305, 306, 307, 308, 309, 310, 311, 312, 313, 314, 315, 316, 317, 318, 319, 320, 321, 322, 323, 324, 325, 326, 327, 328, 329, 330, 331, 332, 333, 334, 335, 336, 337, 338, 339, 340, 341, 342, 343, 344, 345, 346, 347, 348, 349, 350, 351, 352, 353, 354, 355, 356, 357],
      "AcquisitionTime": ["144518.072500", "144519.580000", "144521.085000", "144522.590000", "144524.097500", "144525.602500", "144527.110000", "144528.615000", "144530.122500", "144531.627500", "144533.132500", "144534.640000", "144536.145000", "144537.652500", "144539.157500", "144540.662500", "144542.170000", "144543.675000", "144545.182500", "144546.687500", "144548.192500", "144549.700000", "144551.205000", "144552.712500", "144554.217500", "144555.722500", "144557.230000", "144558.735000", "144600.242500", "144601.747500", "144603.255000", "144604.760000", "144606.265000", "144607.772500", "144609.277500", "144610.785000", "144612.290000", "144613.795000", "144615.302500", "144616.807500", "144618.315000", "144619.820000", "144621.325000", "144622.832500", "144624.337500", "144625.845000", "144627.350000", "144628.855000", "144630.362500", "144631.867500", "144633.375000", "144634.880000", "144636.387500", "144637.892500", "144639.397500", "144640.905000", "144642.410000", "144643.917500", "144645.422500", "144646.927500", "144648.435000", "144649.940000", "144651.447500", "144652.952500", "144654.457500", "144655.965000", "144657.470000", "144658.977500", "144700.482500", "144701.990000", "144703.495000", "144705.000000", "144706.507500", "144708.012500", "144709.520000", "144711.025000", "144712.530000", "144714.037500", "144715.542500", "144717.050000", "144718.555000", "144720.060000", "144721.567500", "144723.072500", "144724.580000", "144726.085000", "144727.590000", "144729.097500", "144730.602500", "144732.110000", "144733.615000", "144735.122500", "144736.627500", "144738.132500", "144739.640000", "144741.145000", "144742.652500", "144744.157500", "144745.662500", "144747.170000", "144748.675000", "144750.182500", "144751.687500", "144753.192500", "144754.700000", "144756.205000", "144757.712500", "144759.217500", "144800.722500", "144802.230000", "144803.735000", "144805.242500", "144806.747500", "144808.255000", "144809.760000", "144811.265000", "144812.772500", "144814.277500", "144815.785000", "144817.290000", "144818.795000", "144820.302500", "144821.807500", "144823.315000", "144824.820000", "144826.325000", "144827.832500", "144829.337500", "144830.845000", "144832.350000", "144833.855000", "144835.362500", "144836.867500", "144838.375000", "144839.880000", "144841.387500", "144842.892500", "144844.397500", "144845.905000", "144847.410000", "144848.917500", "144850.422500", "144851.927500", "144853.435000", "144854.940000", "144856.447500", "144857.952500", "144859.457500", "144900.965000", "144902.470000", "144903.977500", "144905.482500", "144906.990000", "144908.495000", "144910.000000", "144911.507500", "144913.012500", "144914.520000", "144916.025000", "144917.530000", "144919.037500", "144920.542500", "144922.050000", "144923.555000", "144925.060000", "144926.567500", "144928.072500", "144929.580000", "144931.085000", "144932.590000", "144934.097500", "144935.602500", "144937.110000", "144938.615000", "144940.122500", "144941.627500", "144943.132500", "144944.640000", "144946.145000", "144947.652500", "144949.157500", "144950.662500", "144952.170000", "144953.675000", "144955.182500", "144956.687500", "144958.192500", "144959.700000", "145001.205000", "145002.712500", "145004.217500", "145005.722500", "145007.230000", "145008.735000", "145010.242500", "145011.747500", "145013.255000", "145014.760000", "145016.265000", "145017.772500", "145019.277500", "145020.785000", "145022.290000", "145023.795000", "145025.302500", "145026.807500", "145028.315000", "145029.820000", "145031.325000", "145032.832500", "145034.337500", "145035.845000", "145037.350000", "145038.855000", "145040.362500", "145041.867500", "145043.375000", "145044.880000", "145046.387500", "145047.892500", "145049.397500", "145050.905000", "145052.410000", "145053.917500", "145055.422500", "145056.927500", "145058.435000", "145059.940000", "145101.447500", "145102.952500", "145104.457500", "145105.965000", "145107.470000", "145108.977500", "145110.482500", "145111.990000", "145113.495000", "145115.000000", "145116.507500", "145118.012500", "145119.520000", "145121.025000", "145122.530000", "145124.037500", "145125.542500", "145127.050000", "145128.555000", "145130.060000", "145131.567500", "145133.072500", "145134.580000", "145136.085000", "145137.590000", "145139.097500", "145140.602500", "145142.110000", "145143.615000", "145145.122500", "145146.627500", "145148.132500", "145149.640000", "145151.145000", "145152.652500", "145154.157500", "145155.662500", "145157.170000", "145158.675000", "145200.182500", "145201.687500", "145203.192500", "145204.700000", "145206.205000", "145207.712500", "145209.217500", "145210.722500", "145212.230000", "145213.735000", "145215.242500", "145216.747500", "145218.255000", "145219.760000", "145221.265000", "145222.772500", "145224.277500", "145225.785000", "145227.290000", "145228.795000", "145230.302500", "145231.807500", "145233.315000", "145234.820000", "145236.325000", "145237.832500", "145239.337500", "145240.845000", "145242.350000", "145243.855000", "145245.362500", "145246.867500", "145248.375000", "145249.880000", "145251.387500", "145252.892500", "145254.397500", "145255.905000", "145257.410000", "145258.917500", "145300.422500", "145301.927500", "145303.435000", "145304.940000", "145306.447500", "145307.952500", "145309.457500", "145310.965000", "145312.470000", "145313.977500", "145315.482500", "145316.990000", "145318.495000", "145320.000000", "145321.507500", "145323.012500", "145324.520000", "145326.025000", "145327.530000", "145329.037500", "145330.542500", "145332.050000", "145333.555000", "145335.060000", "145336.567500", "145338.072500", "145339.580000", "145341.085000", "145342.590000", "145344.097500", "145345.602500", "145347.110000", "145348.615000", "145350.122500", "145351.627500", "145353.132500", "145354.640000", "145356.145000", "145357.652500", "145359.157500", "145400.662500", "145402.170000", "145403.675000", "145405.182500", "145406.687500", "145408.192500", "145409.700000", "145411.205000", "145412.712500", "145414.217500"],
      "ContentTime": ["145453.000000", "145454.500000", "145456.000000", "145458.500000", "145500.500000", "145503.000000", "145505.500000", "145508.000000", "145510.000000", "145512.000000", "145514.500000", "145517.000000", "145519.000000", "145521.000000", "145523.500000", "145526.000000", "145528.000000", "145530.500000", "145533.000000", "145535.000000", "145537.500000", "145540.000000", "145542.000000", "145544.500000", "145546.500000", "145549.000000", "145551.000000", "145553.500000", "145555.500000", "145558.000000", "145600.500000", "145603.000000", "145605.000000", "145608.000000", "145610.000000", "145612.500000", "145614.500000", "145616.500000", "145619.000000", "145621.000000", "145624.000000", "145625.500000", "145628.500000", "145630.500000", "145632.500000", "145635.000000", "145637.000000", "145639.500000", "145642.000000", "145644.000000", "145646.500000", "145648.500000", "145651.000000", "145653.000000", "145655.000000", "145657.500000", "145700.000000", "145702.500000", "145705.000000", "145707.000000", "145709.500000", "145711.500000", "145714.000000", "145717.000000", "145718.500000", "145721.000000", "145723.000000", "145725.500000", "145727.500000", "145730.000000", "145732.500000", "145734.500000", "145737.000000", "145739.500000", "145741.500000", "145743.500000", "145746.500000", "145748.000000", "145751.000000", "145753.000000", "145755.000000", "145757.500000", "145800.000000", "145802.000000", "145804.500000", "145807.000000", "145809.500000", "145811.500000", "145814.000000", "145817.000000", "145818.500000", "145820.500000", "145823.500000", "145825.500000", "145828.000000", "145830.000000", "145832.500000", "145835.000000", "145837.500000", "145839.500000", "145842.000000", "145844.500000", "145846.000000", "145848.500000", "145851.000000", "145853.500000", "145856.000000", "145858.000000", "145900.000000", "145902.500000", "145905.000000", "145907.000000", "145909.000000", "145911.500000", "145914.000000", "145916.000000", "145918.500000", "145920.500000", "145923.500000", "145925.500000", "145928.000000", "145930.000000", "145932.000000", "145935.000000", "145937.000000", "145939.500000", "145941.500000", "145944.000000", "145946.000000", "145948.500000", "145951.000000", "145953.000000", "145955.500000", "145957.000000", "145959.500000", "150002.000000", "150004.000000", "150007.000000", "150009.000000", "150011.500000", "150013.500000", "150016.000000", "150019.000000", "150020.500000", "150023.000000", "150025.500000", "150027.500000", "150029.500000", "150032.000000", "150034.500000", "150037.000000", "150039.000000", "150041.500000", "150043.500000", "150046.500000", "150048.500000", "150051.000000", "150053.000000", "150055.000000", "150057.500000", "150059.500000", "150102.000000", "150104.500000", "150106.500000", "150109.000000", "150111.000000", "150113.500000", "150116.000000", "150118.500000", "150120.000000", "150123.000000", "150125.000000", "150127.000000", "150129.500000", "150132.000000", "150134.000000", "150136.500000", "150138.500000", "150141.000000", "150143.500000", "150145.500000", "150148.000000", "150150.500000", "150153.000000", "150155.000000", "150157.500000", "150200.000000", "150202.000000", "150204.000000", "150206.500000", "150208.500000", "150211.000000", "150213.500000", "150216.000000", "150218.000000", "150220.500000", "150222.500000", "150225.000000", "150227.000000", "150229.500000", "150231.500000", "150234.000000", "150236.500000", "150238.500000", "150240.500000", "150243.000000", "150245.500000", "150247.500000", "150250.500000", "150252.500000", "150254.500000", "150257.500000", "150259.500000", "150302.000000", "150304.000000", "150306.500000", "150309.000000", "150311.000000", "150314.000000", "150315.500000", "150318.000000", "150320.500000", "150323.000000", "150325.000000", "150328.000000", "150330.500000", "150332.000000", "150335.000000", "150337.000000", "150339.500000", "150341.000000", "150343.500000", "150346.000000", "150348.500000", "150350.500000", "150353.000000", "150355.500000", "150357.500000", "150400.000000", "150402.000000", "150404.500000", "150407.000000", "150409.000000", "150411.500000", "150414.000000", "150416.000000", "150418.500000", "150420.500000", "150423.000000", "150425.000000", "150427.500000", "150429.500000", "150431.500000", "150434.000000", "150436.500000", "150438.500000", "150441.500000", "150443.500000", "150446.000000", "150448.000000", "150450.000000", "150453.000000", "150455.000000", "150457.500000", "150500.000000", "150502.000000", "150504.500000", "150507.000000", "150509.500000", "150511.500000", "150513.500000", "150516.000000", "150518.500000", "150521.000000", "150523.000000", "150525.500000", "150527.500000", "150530.000000", "150532.500000", "150535.000000", "150537.000000", "150539.500000", "150541.500000", "150544.000000", "150546.500000", "150548.500000", "150551.000000", "150553.500000", "150555.500000", "150557.500000", "150600.000000", "150602.500000", "150605.000000", "150606.500000", "150609.000000", "150611.500000", "150613.500000", "150616.500000", "150618.500000", "150620.500000", "150623.000000", "150625.500000", "150627.000000", "150629.500000", "150632.000000", "150634.500000", "150636.500000", "150639.000000", "150641.000000", "150643.000000", "150645.500000", "150647.500000", "150650.000000", "150652.000000", "150654.500000", "150657.500000", "150659.500000", "150702.000000", "150704.000000", "150706.000000", "150709.000000", "150710.500000", "150713.500000", "150715.500000", "150718.000000", "150720.000000", "150722.500000", "150725.500000", "150727.000000", "150729.500000", "150732.000000", "150734.500000", "150736.500000", "150739.000000", "150741.500000", "150743.500000", "150746.000000", "150748.000000", "150750.500000", "150752.500000", "150755.000000", "150757.500000", "150800.000000", "150802.000000", "150805.000000", "150807.000000", "150809.000000", "150811.000000", "150813.500000", "150816.000000", "150818.000000", "150821.000000", "150823.500000", "150825.500000", "150828.000000", "150830.000000", "150832.000000"],
      "DataSetTrailingPadding": [
        "\u0000\u0000\u0000\u0000\u0000\u0000\u0000\u0000\u0000\u0000\u0000\u0000\u0000\u0000\u0000\u0000\u0000\u0000\u0000\u0000\u0000\u0000\u0000\u0000\u0000\u0000\u0000\u0000\u0000\u0000\u0000\u0000\u0000\u0000\u0000\u0000\u0000\u0000\u0000\u0000\u0000\u0000\u0000\u0000\u0000\u0000\u0000\u0000\u0000\u0000\u0000\u0000\u0000\u0000\u0000\u0000\u0000\u0000\u0000\u0000\u0000\u0000\u0000\u0000\u0000\u0000\u0000\u0000\u0000\u0000\u0000\u0000\u0000\u0000\u0000\u0000\u0000\u0000\u0000\u0000\u0000\u0000\u0000\u0000\u0000\u0000\u0000\u0000\u0000\u0000",
        "\u0000\u0000\u0000\u0000\u0000\u0000\u0000\u0000\u0000\u0000\u0000\u0000\u0000\u0000\u0000\u0000\u0000\u0000\u0000\u0000\u0000\u0000\u0000\u0000\u0000\u0000\u0000\u0000\u0000\u0000\u0000\u0000\u0000\u0000\u0000\u0000\u0000\u0000\u0000\u0000\u0000\u0000\u0000\u0000\u0000\u0000\u0000\u0000\u0000\u0000\u0000\u0000\u0000\u0000\u0000\u0000\u0000\u0000\u0000\u0000\u0000\u0000\u0000\u0000\u0000\u0000\u0000\u0000\u0000\u0000\u0000\u0000\u0000\u0000\u0000\u0000\u0000\u0000\u0000\u0000\u0000\u0000\u0000\u0000\u0000\u0000\u0000\u0000\u0000\u0000",
        "\u0000\u0000\u0000\u0000\u0000\u0000\u0000\u0000\u0000\u0000\u0000\u0000\u0000\u0000\u0000\u0000\u0000\u0000\u0000\u0000\u0000\u0000\u0000\u0000\u0000\u0000\u0000\u0000\u0000\u0000\u0000\u0000\u0000\u0000\u0000\u0000\u0000\u0000\u0000\u0000\u0000\u0000\u0000\u0000\u0000\u0000\u0000\u0000\u0000\u0000\u0000\u0000\u0000\u0000\u0000\u0000\u0000\u0000\u0000\u0000\u0000\u0000\u0000\u0000\u0000\u0000\u0000\u0000\u0000\u0000\u0000\u0000\u0000\u0000\u0000\u0000\u0000\u0000\u0000\u0000\u0000\u0000\u0000\u0000\u0000\u0000\u0000\u0000\u0000\u0000\u0000\u0000",
        "\u0000\u0000\u0000\u0000\u0000\u0000\u0000\u0000\u0000\u0000\u0000\u0000\u0000\u0000\u0000\u0000\u0000\u0000\u0000\u0000\u0000\u0000\u0000\u0000\u0000\u0000\u0000\u0000\u0000\u0000\u0000\u0000\u0000\u0000\u0000\u0000\u0000\u0000\u0000\u0000\u0000\u0000\u0000\u0000\u0000\u0000\u0000\u0000\u0000\u0000\u0000\u0000\u0000\u0000\u0000\u0000\u0000\u0000\u0000\u0000\u0000\u0000\u0000\u0000\u0000\u0000\u0000\u0000\u0000\u0000\u0000\u0000\u0000\u0000\u0000\u0000\u0000\u0000\u0000\u0000\u0000\u0000\u0000\u0000\u0000\u0000\u0000\u0000\u0000\u0000\u0000\u0000",
        "\u0000\u0000\u0000\u0000\u0000\u0000\u0000\u0000\u0000\u0000\u0000\u0000\u0000\u0000\u0000\u0000\u0000\u0000\u0000\u0000\u0000\u0000\u0000\u0000\u0000\u0000\u0000\u0000\u0000\u0000\u0000\u0000\u0000\u0000\u0000\u0000\u0000\u0000\u0000\u0000\u0000\u0000\u0000\u0000\u0000\u0000\u0000\u0000\u0000\u0000\u0000\u0000\u0000\u0000\u0000\u0000\u0000\u0000\u0000\u0000\u0000\u0000\u0000\u0000\u0000\u0000\u0000\u0000\u0000\u0000\u0000\u0000\u0000\u0000\u0000\u0000\u0000\u0000\u0000\u0000\u0000\u0000\u0000\u0000\u0000\u0000\u0000\u0000\u0000\u0000",
        "\u0000\u0000\u0000\u0000\u0000\u0000\u0000\u0000\u0000\u0000\u0000\u0000\u0000\u0000\u0000\u0000\u0000\u0000\u0000\u0000\u0000\u0000\u0000\u0000\u0000\u0000\u0000\u0000\u0000\u0000\u0000\u0000\u0000\u0000\u0000\u0000\u0000\u0000\u0000\u0000\u0000\u0000\u0000\u0000\u0000\u0000\u0000\u0000\u0000\u0000\u0000\u0000\u0000\u0000\u0000\u0000\u0000\u0000\u0000\u0000\u0000\u0000\u0000\u0000\u0000\u0000\u0000\u0000\u0000\u0000\u0000\u0000\u0000\u0000\u0000\u0000\u0000\u0000\u0000\u0000\u0000\u0000\u0000\u0000\u0000\u0000\u0000\u0000\u0000\u0000",
        "\u0000\u0000\u0000\u0000\u0000\u0000\u0000\u0000\u0000\u0000\u0000\u0000\u0000\u0000\u0000\u0000\u0000\u0000\u0000\u0000\u0000\u0000\u0000\u0000\u0000\u0000\u0000\u0000\u0000\u0000\u0000\u0000\u0000\u0000\u0000\u0000\u0000\u0000\u0000\u0000\u0000\u0000\u0000\u0000\u0000\u0000\u0000\u0000\u0000\u0000\u0000\u0000\u0000\u0000\u0000\u0000\u0000\u0000\u0000\u0000\u0000\u0000\u0000\u0000\u0000\u0000\u0000\u0000\u0000\u0000\u0000\u0000\u0000\u0000\u0000\u0000\u0000\u0000\u0000\u0000\u0000\u0000\u0000\u0000\u0000\u0000\u0000\u0000\u0000\u0000",
        "\u0000\u0000\u0000\u0000\u0000\u0000\u0000\u0000\u0000\u0000\u0000\u0000\u0000\u0000\u0000\u0000\u0000\u0000\u0000\u0000\u0000\u0000\u0000\u0000\u0000\u0000\u0000\u0000\u0000\u0000\u0000\u0000\u0000\u0000\u0000\u0000\u0000\u0000\u0000\u0000\u0000\u0000\u0000\u0000\u0000\u0000\u0000\u0000\u0000\u0000\u0000\u0000\u0000\u0000\u0000\u0000\u0000\u0000\u0000\u0000\u0000\u0000\u0000\u0000\u0000\u0000\u0000\u0000\u0000\u0000\u0000\u0000\u0000\u0000\u0000\u0000\u0000\u0000\u0000\u0000\u0000\u0000\u0000\u0000\u0000\u0000\u0000\u0000\u0000\u0000\u0000\u0000",
        "\u0000\u0000\u0000\u0000\u0000\u0000\u0000\u0000\u0000\u0000\u0000\u0000\u0000\u0000\u0000\u0000\u0000\u0000\u0000\u0000\u0000\u0000\u0000\u0000\u0000\u0000\u0000\u0000\u0000\u0000\u0000\u0000\u0000\u0000\u0000\u0000\u0000\u0000\u0000\u0000\u0000\u0000\u0000\u0000\u0000\u0000\u0000\u0000\u0000\u0000\u0000\u0000\u0000\u0000\u0000\u0000\u0000\u0000\u0000\u0000\u0000\u0000\u0000\u0000\u0000\u0000\u0000\u0000\u0000\u0000\u0000\u0000\u0000\u0000\u0000\u0000\u0000\u0000\u0000\u0000\u0000\u0000\u0000\u0000\u0000\u0000\u0000\u0000\u0000\u0000\u0000\u0000\u0000\u0000",
        "\u0000\u0000\u0000\u0000\u0000\u0000\u0000\u0000\u0000\u0000\u0000\u0000\u0000\u0000\u0000\u0000\u0000\u0000\u0000\u0000\u0000\u0000\u0000\u0000\u0000\u0000\u0000\u0000\u0000\u0000\u0000\u0000\u0000\u0000\u0000\u0000\u0000\u0000\u0000\u0000\u0000\u0000\u0000\u0000\u0000\u0000\u0000\u0000\u0000\u0000\u0000\u0000\u0000\u0000\u0000\u0000\u0000\u0000\u0000\u0000\u0000\u0000\u0000\u0000\u0000\u0000\u0000\u0000\u0000\u0000\u0000\u0000\u0000\u0000\u0000\u0000\u0000\u0000\u0000\u0000\u0000\u0000\u0000\u0000\u0000\u0000",
        "\u0000\u0000\u0000\u0000\u0000\u0000\u0000\u0000\u0000\u0000\u0000\u0000\u0000\u0000\u0000\u0000\u0000\u0000\u0000\u0000\u0000\u0000\u0000\u0000\u0000\u0000\u0000\u0000\u0000\u0000\u0000\u0000\u0000\u0000\u0000\u0000\u0000\u0000\u0000\u0000\u0000\u0000\u0000\u0000\u0000\u0000\u0000\u0000\u0000\u0000\u0000\u0000\u0000\u0000\u0000\u0000\u0000\u0000\u0000\u0000\u0000\u0000\u0000\u0000\u0000\u0000\u0000\u0000\u0000\u0000\u0000\u0000\u0000\u0000\u0000\u0000\u0000\u0000\u0000\u0000\u0000\u0000\u0000\u0000\u0000\u0000",
        "\u0000\u0000\u0000\u0000\u0000\u0000\u0000\u0000\u0000\u0000\u0000\u0000\u0000\u0000\u0000\u0000\u0000\u0000\u0000\u0000\u0000\u0000\u0000\u0000\u0000\u0000\u0000\u0000\u0000\u0000\u0000\u0000\u0000\u0000\u0000\u0000\u0000\u0000\u0000\u0000\u0000\u0000\u0000\u0000\u0000\u0000\u0000\u0000\u0000\u0000\u0000\u0000\u0000\u0000\u0000\u0000\u0000\u0000\u0000\u0000\u0000\u0000\u0000\u0000\u0000\u0000\u0000\u0000\u0000\u0000\u0000\u0000\u0000\u0000\u0000\u0000\u0000\u0000\u0000\u0000\u0000\u0000\u0000\u0000\u0000\u0000",
        "\u0000\u0000\u0000\u0000\u0000\u0000\u0000\u0000\u0000\u0000\u0000\u0000\u0000\u0000\u0000\u0000\u0000\u0000\u0000\u0000\u0000\u0000\u0000\u0000\u0000\u0000\u0000\u0000\u0000\u0000\u0000\u0000\u0000\u0000\u0000\u0000\u0000\u0000\u0000\u0000\u0000\u0000\u0000\u0000\u0000\u0000\u0000\u0000\u0000\u0000\u0000\u0000\u0000\u0000\u0000\u0000\u0000\u0000\u0000\u0000\u0000\u0000\u0000\u0000\u0000\u0000\u0000\u0000\u0000\u0000\u0000\u0000\u0000\u0000\u0000\u0000\u0000\u0000\u0000\u0000\u0000\u0000\u0000\u0000\u0000\u0000\u0000\u0000",
        "\u0000\u0000\u0000\u0000\u0000\u0000\u0000\u0000\u0000\u0000\u0000\u0000\u0000\u0000\u0000\u0000\u0000\u0000\u0000\u0000\u0000\u0000\u0000\u0000\u0000\u0000\u0000\u0000\u0000\u0000\u0000\u0000\u0000\u0000\u0000\u0000\u0000\u0000\u0000\u0000\u0000\u0000\u0000\u0000\u0000\u0000\u0000\u0000\u0000\u0000\u0000\u0000\u0000\u0000\u0000\u0000\u0000\u0000\u0000\u0000\u0000\u0000\u0000\u0000\u0000\u0000\u0000\u0000\u0000\u0000\u0000\u0000\u0000\u0000\u0000\u0000\u0000\u0000\u0000\u0000\u0000\u0000\u0000\u0000\u0000\u0000\u0000\u0000",
        "\u0000\u0000\u0000\u0000\u0000\u0000\u0000\u0000\u0000\u0000\u0000\u0000\u0000\u0000\u0000\u0000\u0000\u0000\u0000\u0000\u0000\u0000\u0000\u0000\u0000\u0000\u0000\u0000\u0000\u0000\u0000\u0000\u0000\u0000\u0000\u0000\u0000\u0000\u0000\u0000\u0000\u0000\u0000\u0000\u0000\u0000\u0000\u0000\u0000\u0000\u0000\u0000\u0000\u0000\u0000\u0000\u0000\u0000\u0000\u0000\u0000\u0000\u0000\u0000\u0000\u0000\u0000\u0000\u0000\u0000\u0000\u0000\u0000\u0000\u0000\u0000\u0000\u0000\u0000\u0000\u0000\u0000\u0000\u0000\u0000\u0000",
        "\u0000\u0000\u0000\u0000\u0000\u0000\u0000\u0000\u0000\u0000\u0000\u0000\u0000\u0000\u0000\u0000\u0000\u0000\u0000\u0000\u0000\u0000\u0000\u0000\u0000\u0000\u0000\u0000\u0000\u0000\u0000\u0000\u0000\u0000\u0000\u0000\u0000\u0000\u0000\u0000\u0000\u0000\u0000\u0000\u0000\u0000\u0000\u0000\u0000\u0000\u0000\u0000\u0000\u0000\u0000\u0000\u0000\u0000\u0000\u0000\u0000\u0000\u0000\u0000\u0000\u0000\u0000\u0000\u0000\u0000\u0000\u0000\u0000\u0000\u0000\u0000\u0000\u0000\u0000\u0000\u0000\u0000\u0000\u0000\u0000\u0000",
        "\u0000\u0000\u0000\u0000\u0000\u0000\u0000\u0000\u0000\u0000\u0000\u0000\u0000\u0000\u0000\u0000\u0000\u0000\u0000\u0000\u0000\u0000\u0000\u0000\u0000\u0000\u0000\u0000\u0000\u0000\u0000\u0000\u0000\u0000\u0000\u0000\u0000\u0000\u0000\u0000\u0000\u0000\u0000\u0000\u0000\u0000\u0000\u0000\u0000\u0000\u0000\u0000\u0000\u0000\u0000\u0000\u0000\u0000\u0000\u0000\u0000\u0000\u0000\u0000\u0000\u0000\u0000\u0000\u0000\u0000\u0000\u0000\u0000\u0000\u0000\u0000\u0000\u0000\u0000\u0000\u0000\u0000\u0000\u0000\u0000\u0000",
        "\u0000\u0000\u0000\u0000\u0000\u0000\u0000\u0000\u0000\u0000\u0000\u0000\u0000\u0000\u0000\u0000\u0000\u0000\u0000\u0000\u0000\u0000\u0000\u0000\u0000\u0000\u0000\u0000\u0000\u0000\u0000\u0000\u0000\u0000\u0000\u0000\u0000\u0000\u0000\u0000\u0000\u0000\u0000\u0000\u0000\u0000\u0000\u0000\u0000\u0000\u0000\u0000\u0000\u0000\u0000\u0000\u0000\u0000\u0000\u0000\u0000\u0000\u0000\u0000\u0000\u0000\u0000\u0000\u0000\u0000\u0000\u0000\u0000\u0000\u0000\u0000\u0000\u0000\u0000\u0000\u0000\u0000\u0000\u0000\u0000\u0000\u0000\u0000",
        "\u0000\u0000\u0000\u0000\u0000\u0000\u0000\u0000\u0000\u0000\u0000\u0000\u0000\u0000\u0000\u0000\u0000\u0000\u0000\u0000\u0000\u0000\u0000\u0000\u0000\u0000\u0000\u0000\u0000\u0000\u0000\u0000\u0000\u0000\u0000\u0000\u0000\u0000\u0000\u0000\u0000\u0000\u0000\u0000\u0000\u0000\u0000\u0000\u0000\u0000\u0000\u0000\u0000\u0000\u0000\u0000\u0000\u0000\u0000\u0000\u0000\u0000\u0000\u0000\u0000\u0000\u0000\u0000\u0000\u0000\u0000\u0000\u0000\u0000\u0000\u0000\u0000\u0000\u0000\u0000\u0000\u0000\u0000\u0000\u0000\u0000\u0000\u0000",
