{
  "AcquisitionMatrixPE": 110,
  "AcquisitionNumber": 1,
  "AcquisitionTime": "10:46:9.210000",
  "BandwidthPerPixelPhaseEncode": 26.35,
  "BaseResolution": 110,
  "CoilString": "C:HEA;HEP",
  "ConversionSoftware": "dcm2niix",
  "ConversionSoftwareVersion": "v1.0.20190410  GCC6.3.0",
  "DerivedVendorReportedEchoSpacing": 0.000690012,
  "DeviceSerialNumber": "35422",
  "DwellTime": 2.6e-06,
  "EchoTime": 0.03,
  "EffectiveEchoSpacing": 0.000345006,
  "FlipAngle": 85,
  "ImageComments": "Unaliased_MB4_PE4_LB",
  "ImageOrientationPatientDICOM": [0.999782, 0.00167451, 0.0208077, 1.87642e-10, 0.996777, -0.0802164],
  "ImageType": [
    "ORIGINAL",
    "PRIMARY",
    "FMRI",
    "NONE",
    "MB",
    "ND",
    "MOSAIC"
],
  "ImagingFrequency": 123.177,
  "InPlanePhaseEncodingDirectionDICOM": "ROW",
  "InstitutionAddress": "kwanakro_599_C6F879_Seoul_KR_ZIP",
  "InstitutionName": "SNUBIC",
  "InstitutionalDepartmentName": "Department",
  "MRAcquisitionType": "2D",
  "MagneticFieldStrength": 3,
  "Manufacturer": "Siemens",
  "ManufacturersModelName": "TrioTim",
  "Modality": "MR",
  "MultibandAccelerationFactor": 4,
  "ParallelReductionFactorInPlane": 2,
  "PartialFourier": 1,
  "PatientPosition": "HFS",
  "PercentPhaseFOV": 100,
  "PhaseEncodingDirection": "i-",
  "PhaseEncodingSteps": 110,
  "PhaseResolution": 1,
  "PixelBandwidth": 1748,
  "ProcedureStepDescription": "SNU_SAVED",
  "ProtocolName": "WMGNG2_MB4_LR_SBRef",
  "PulseSequenceDetails": "%CustomerSeq%_cmrr_mbep2d_bold",
  "ReceiveCoilName": "32Ch_Head",
  "ReconMatrixPE": 110,
  "RefLinesPE": 32,
  "RepetitionTime": 1.5,
  "SAR": 0.148331,
  "ScanOptions": "FS",
  "ScanningSequence": "EP",
  "SequenceName": "epfid2d1_110",
  "SequenceVariant": "SK_SS",
  "SeriesDescription": "WMGNG2_MB4_LR_SBRef",
  "SeriesNumber": 20,
  "ShimSetting": [-4158, -29753, -2040, 749, 2, 462, -256, -34],
  "SliceThickness": 2.3,
  "SliceTiming": [0, 0.6575, 1.3175, 0.47, 1.1275, 0.2825, 0.94, 0.0925, 0.7525, 1.41, 0.565, 1.2225, 0.375, 1.035, 0.1875, 0.8475, 0, 0.6575, 1.3175, 0.47, 1.1275, 0.2825, 0.94, 0.0925, 0.7525, 1.41, 0.565, 1.2225, 0.375, 1.035, 0.1875, 0.8475, 0, 0.6575, 1.3175, 0.47, 1.1275, 0.2825, 0.94, 0.0925, 0.7525, 1.41, 0.565, 1.2225, 0.375, 1.035, 0.1875, 0.8475, 0, 0.6575, 1.3175, 0.47, 1.1275, 0.2825, 0.94, 0.0925, 0.7525, 1.41, 0.565, 1.2225, 0.375, 1.035, 0.1875, 0.8475],
  "SoftwareVersions": "syngo_MR_B17",
  "SpacingBetweenSlices": 2.3,
  "StationName": "MRC35422",
  "TaskName": "wmgng",
  "TotalReadoutTime": 0.0376057,
  "TxRefAmp": 338.422,
  "dcmmeta_affine": [
    [-2.326765537261963, 4.3669315386019036e-10, 0.04801240935921669, 127.92877197265625],
    [-0.0038970510940998793, 2.319772958755493, -0.18445752561092377, -102.19410705566406],
    [0.04842517152428627, 0.1866854429244995, 2.292088747024536, -58.79072952270508],
    [0.0, 0.0, 0.0, 1.0]
],
  "dcmmeta_reorient_transform": [
    [0.0, -1.0, 0.0, 109.0],
    [1.0, 0.0, 0.0, 0.0],
    [0.0, 0.0, 1.0, 0.0],
    [0.0, 0.0, 0.0, 1.0]
],
  "dcmmeta_shape": [110, 110, 64, 357],
  "dcmmeta_slice_dim": 2,
  "dcmmeta_version": 0.6,
  "global": {
    "const": {
      "AcquisitionMatrix": [0, 110, 110, 0],
      "AngioFlag": "N",
      "BitsAllocated": 16,
      "BitsStored": 12,
      "Columns": 880,
      "EchoNumbers": 1,
      "EchoTime": 30.0,
      "EchoTrainLength": 1,
      "FlipAngle": 85.0,
      "HighBit": 11,
      "ImageOrientationPatient": [0.99978209425731, 0.00167451416537, 0.02080769100047, 1.876416e-10, 0.99677747178096, -0.0802164057407],
      "ImagePositionPatient": [-1023.7334989906, -1045.274098033, 14.78819246934],
      "ImageType": [
        "ORIGINAL",
        "PRIMARY",
        "FMRI",
        "NONE",
        "MB",
        "ND",
        "MOSAIC"
],
      "ImagedNucleus": "1H",
      "ImagingFrequency": 123.177266,
      "InPlanePhaseEncodingDirection": "ROW",
      "MRAcquisitionType": "2D",
      "MagneticFieldStrength": 3.0,
      "Manufacturer": "SIEMENS",
      "ManufacturerModelName": "TrioTim",
      "Modality": "MR",
      "NumberOfAverages": 1.0,
      "NumberOfPhaseEncodingSteps": 110,
      "PercentPhaseFieldOfView": 100.0,
      "PercentSampling": 100.0,
      "PerformedProcedureStepStartTime": "100939.375000",
      "PhotometricInterpretation": "MONOCHROME2",
      "PixelBandwidth": 1748.0,
      "PixelRepresentation": 0,
      "PixelSpacing": [2.3272726535797, 2.3272726535797],
      "ProtocolName": "WMGNG2_MB4_LR_SBRef",
      "ReferencedPerformedProcedureStepSequence": [
        {
          "ReferencedSOPClassUID": "1.2.840.10008.3.1.2.3.3",
          "ReferencedSOPInstanceUID": "1.3.12.2.1107.5.2.32.35422.30000020091001093942100000000"}
],
      "RepetitionTime": 1500.0,
      "Rows": 880,
      "SAR": 0.14833056588842,
      "SamplesPerPixel": 1,
      "ScanOptions": "FS",
      "ScanningSequence": "EP",
      "SequenceName": "epfid2d1_110",
      "SequenceVariant": [
        "SK",
        "SS"
],
      "SeriesDescription": "WMGNG2_MB4_LR_SBRef",
      "SeriesNumber": 20,
      "SeriesTime": "105700.265000",
      "SliceLocation": -47.722138112874,
      "SliceThickness": 2.2999999523163,
      "SmallestImagePixelValue": 0,
      "SoftwareVersions": "syngo MR B17",
      "SpacingBetweenSlices": 2.3000000271308,
      "SpecificCharacterSet": "ISO_IR 100",
      "StudyID": "1",
      "StudyTime": "100939.234000",
      "TransmitCoilName": "Body",
      "VariableFlipAngleFlag": "N",
      "WindowCenterWidthExplanation": "Algo1",
      "dBdt": 0.0},
    "slices": {}
  },
  "time": {
    "samples": {
      "AcquisitionNumber": [1, 2, 3, 4, 5, 6, 7, 8, 9, 10, 11, 12, 13, 14, 15, 16, 17, 18, 19, 20, 21, 22, 23, 24, 25, 26, 27, 28, 29, 30, 31, 32, 33, 34, 35, 36, 37, 38, 39, 40, 41, 42, 43, 44, 45, 46, 47, 48, 49, 50, 51, 52, 53, 54, 55, 56, 57, 58, 59, 60, 61, 62, 63, 64, 65, 66, 67, 68, 69, 70, 71, 72, 73, 74, 75, 76, 77, 78, 79, 80, 81, 82, 83, 84, 85, 86, 87, 88, 89, 90, 91, 92, 93, 94, 95, 96, 97, 98, 99, 100, 101, 102, 103, 104, 105, 106, 107, 108, 109, 110, 111, 112, 113, 114, 115, 116, 117, 118, 119, 120, 121, 122, 123, 124, 125, 126, 127, 128, 129, 130, 131, 132, 133, 134, 135, 136, 137, 138, 139, 140, 141, 142, 143, 144, 145, 146, 147, 148, 149, 150, 151, 152, 153, 154, 155, 156, 157, 158, 159, 160, 161, 162, 163, 164, 165, 166, 167, 168, 169, 170, 171, 172, 173, 174, 175, 176, 177, 178, 179, 180, 181, 182, 183, 184, 185, 186, 187, 188, 189, 190, 191, 192, 193, 194, 195, 196, 197, 198, 199, 200, 201, 202, 203, 204, 205, 206, 207, 208, 209, 210, 211, 212, 213, 214, 215, 216, 217, 218, 219, 220, 221, 222, 223, 224, 225, 226, 227, 228, 229, 230, 231, 232, 233, 234, 235, 236, 237, 238, 239, 240, 241, 242, 243, 244, 245, 246, 247, 248, 249, 250, 251, 252, 253, 254, 255, 256, 257, 258, 259, 260, 261, 262, 263, 264, 265, 266, 267, 268, 269, 270, 271, 272, 273, 274, 275, 276, 277, 278, 279, 280, 281, 282, 283, 284, 285, 286, 287, 288, 289, 290, 291, 292, 293, 294, 295, 296, 297, 298, 299, 300, 301, 302, 303, 304, 305, 306, 307, 308, 309, 310, 311, 312, 313, 314, 315, 316, 317, 318, 319, 320, 321, 322, 323, 324, 325, 326, 327, 328, 329, 330, 331, 332, 333, 334, 335, 336, 337, 338, 339, 340, 341, 342, 343, 344, 345, 346, 347, 348, 349, 350, 351, 352, 353, 354, 355, 356, 357],
      "AcquisitionTime": ["104609.210000", "104610.715000", "104612.222500", "104613.727500", "104615.232500", "104616.740000", "104618.245000", "104619.752500", "104621.257500", "104622.762500", "104624.270000", "104625.775000", "104627.282500", "104628.787500", "104630.292500", "104631.800000", "104633.305000", "104634.812500", "104636.317500", "104637.825000", "104639.330000", "104640.835000", "104642.342500", "104643.847500", "104645.355000", "104646.860000", "104648.365000", "104649.872500", "104651.377500", "104652.885000", "104654.390000", "104655.895000", "104657.402500", "104658.907500", "104700.415000", "104701.920000", "104703.427500", "104704.932500", "104706.437500", "104707.945000", "104709.450000", "104710.957500", "104712.462500", "104713.967500", "104715.475000", "104716.980000", "104718.487500", "104719.992500", "104721.497500", "104723.005000", "104724.510000", "104726.017500", "104727.522500", "104729.027500", "104730.535000", "104732.040000", "104733.547500", "104735.052500", "104736.560000", "104738.065000", "104739.570000", "104741.077500", "104742.582500", "104744.090000", "104745.595000", "104747.100000", "104748.607500", "104750.112500", "104751.620000", "104753.125000", "104754.630000", "104756.137500", "104757.642500", "104759.150000", "104800.655000", "104802.160000", "104803.667500", "104805.172500", "104806.680000", "104808.185000", "104809.692500", "104811.197500", "104812.702500", "104814.210000", "104815.715000", "104817.222500", "104818.727500", "104820.232500", "104821.740000", "104823.245000", "104824.752500", "104826.257500", "104827.762500", "104829.270000", "104830.775000", "104832.282500", "104833.787500", "104835.292500", "104836.800000", "104838.305000", "104839.812500", "104841.317500", "104842.825000", "104844.330000", "104845.835000", "104847.342500", "104848.847500", "104850.355000", "104851.860000", "104853.365000", "104854.872500", "104856.377500", "104857.885000", "104859.390000", "104900.895000", "104902.402500", "104903.907500", "104905.415000", "104906.920000", "104908.427500", "104909.932500", "104911.437500", "104912.945000", "104914.450000", "104915.957500", "104917.462500", "104918.967500", "104920.475000", "104921.980000", "104923.487500", "104924.992500", "104926.497500", "104928.005000", "104929.510000", "104931.017500", "104932.522500", "104934.027500", "104935.535000", "104937.040000", "104938.547500", "104940.052500", "104941.560000", "104943.065000", "104944.570000", "104946.077500", "104947.582500", "104949.090000", "104950.595000", "104952.100000", "104953.607500", "104955.112500", "104956.620000", "104958.125000", "104959.630000", "105001.137500", "105002.642500", "105004.150000", "105005.655000", "105007.160000", "105008.667500", "105010.172500", "105011.680000", "105013.185000", "105014.692500", "105016.197500", "105017.702500", "105019.210000", "105020.715000", "105022.222500", "105023.727500", "105025.232500", "105026.740000", "105028.245000", "105029.752500", "105031.257500", "105032.762500", "105034.270000", "105035.775000", "105037.282500", "105038.787500", "105040.292500", "105041.800000", "105043.305000", "105044.812500", "105046.317500", "105047.825000", "105049.330000", "105050.835000", "105052.342500", "105053.847500", "105055.355000", "105056.860000", "105058.365000", "105059.872500", "105101.377500", "105102.885000", "105104.390000", "105105.895000", "105107.402500", "105108.907500", "105110.415000", "105111.920000", "105113.427500", "105114.932500", "105116.437500", "105117.945000", "105119.450000", "105120.957500", "105122.462500", "105123.967500", "105125.475000", "105126.980000", "105128.487500", "105129.992500", "105131.497500", "105133.005000", "105134.510000", "105136.017500", "105137.522500", "105139.027500", "105140.535000", "105142.040000", "105143.547500", "105145.052500", "105146.560000", "105148.065000", "105149.570000", "105151.077500", "105152.582500", "105154.090000", "105155.595000", "105157.100000", "105158.607500", "105200.112500", "105201.620000", "105203.125000", "105204.630000", "105206.137500", "105207.642500", "105209.150000", "105210.655000", "105212.160000", "105213.667500", "105215.172500", "105216.680000", "105218.185000", "105219.692500", "105221.197500", "105222.702500", "105224.210000", "105225.715000", "105227.222500", "105228.727500", "105230.232500", "105231.740000", "105233.245000", "105234.752500", "105236.257500", "105237.762500", "105239.270000", "105240.775000", "105242.282500", "105243.787500", "105245.292500", "105246.800000", "105248.305000", "105249.812500", "105251.317500", "105252.825000", "105254.330000", "105255.835000", "105257.342500", "105258.847500", "105300.355000", "105301.860000", "105303.365000", "105304.872500", "105306.377500", "105307.885000", "105309.390000", "105310.895000", "105312.402500", "105313.907500", "105315.415000", "105316.920000", "105318.427500", "105319.932500", "105321.437500", "105322.945000", "105324.450000", "105325.957500", "105327.462500", "105328.967500", "105330.475000", "105331.980000", "105333.487500", "105334.992500", "105336.497500", "105338.005000", "105339.510000", "105341.017500", "105342.522500", "105344.027500", "105345.535000", "105347.040000", "105348.547500", "105350.052500", "105351.560000", "105353.065000", "105354.570000", "105356.077500", "105357.582500", "105359.090000", "105400.595000", "105402.100000", "105403.607500", "105405.112500", "105406.620000", "105408.125000", "105409.630000", "105411.137500", "105412.642500", "105414.150000", "105415.655000", "105417.160000", "105418.667500", "105420.172500", "105421.680000", "105423.185000", "105424.692500", "105426.197500", "105427.702500", "105429.210000", "105430.715000", "105432.222500", "105433.727500", "105435.232500", "105436.740000", "105438.245000", "105439.752500", "105441.257500", "105442.762500", "105444.270000", "105445.775000", "105447.282500", "105448.787500", "105450.292500", "105451.800000", "105453.305000", "105454.812500", "105456.317500", "105457.825000", "105459.330000", "105500.835000", "105502.342500", "105503.847500", "105505.355000"],
      "ContentTime": ["105700.265000", "105702.250000", "105703.750000", "105706.250000", "105708.250000", "105710.265000", "105712.750000", "105714.750000", "105717.250000", "105719.750000", "105721.750000", "105723.750000", "105726.250000", "105728.250000", "105731.250000", "105733.250000", "105735.750000", "105737.750000", "105740.265000", "105742.250000", "105744.750000", "105747.250000", "105749.250000", "105752.250000", "105754.250000", "105756.250000", "105758.250000", "105800.750000", "105803.250000", "105806.250000", "105807.750000", "105810.750000", "105812.750000", "105814.750000", "105817.750000", "105819.750000", "105822.250000", "105824.250000", "105826.750000", "105829.250000", "105831.750000", "105833.750000", "105835.750000", "105838.250000", "105841.250000", "105842.750000", "105845.265000", "105847.250000", "105850.265000", "105852.750000", "105854.250000", "105856.750000", "105859.250000", "105901.750000", "105903.750000", "105906.250000", "105908.265000", "105910.750000", "105912.750000", "105915.265000", "105917.250000", "105919.750000", "105922.250000", "105924.750000", "105926.750000", "105929.250000", "105931.750000", "105933.750000", "105936.250000", "105938.250000", "105940.750000", "105943.250000", "105945.750000", "105947.750000", "105949.750000", "105952.250000", "105954.750000", "105956.750000", "105959.750000", "110001.750000", "110004.250000", "110006.750000", "110008.750000", "110010.750000", "110013.250000", "110015.265000", "110017.750000", "110020.265000", "110022.250000", "110024.750000", "110027.250000", "110029.750000", "110031.750000", "110034.250000", "110036.750000", "110038.750000", "110041.250000", "110043.750000", "110045.750000", "110047.750000", "110050.265000", "110053.250000", "110055.750000", "110057.750000", "110100.265000", "110102.250000", "110104.750000", "110107.250000", "110109.250000", "110111.750000", "110113.750000", "110116.250000", "110118.750000", "110121.250000", "110122.750000", "110125.265000", "110127.750000", "110130.265000", "110131.750000", "110134.250000", "110136.750000", "110139.250000", "110141.250000", "110143.750000", "110146.250000", "110148.250000", "110150.750000", "110152.750000", "110155.265000", "110157.750000", "110159.750000", "110201.750000", "110204.750000", "110206.750000", "110209.250000", "110211.750000", "110214.250000", "110216.250000", "110218.750000", "110220.750000", "110222.750000", "110225.250000", "110227.250000", "110230.250000", "110232.250000", "110234.750000", "110236.250000", "110238.750000", "110241.250000", "110243.250000", "110245.750000", "110248.250000", "110250.265000", "110253.250000", "110255.265000", "110257.250000", "110259.750000", "110301.750000", "110304.750000", "110306.750000", "110309.250000", "110311.250000", "110313.750000", "110315.750000", "110318.250000", "110320.265000", "110323.250000", "110324.750000", "110327.250000", "110329.750000", "110331.750000", "110334.250000", "110336.250000", "110338.250000", "110341.250000", "110343.250000", "110345.750000", "110347.750000", "110350.265000", "110352.750000", "110355.265000", "110357.250000", "110359.750000", "110401.750000", "110404.250000", "110406.750000", "110409.250000", "110411.250000", "110413.750000", "110415.750000", "110418.250000", "110420.750000", "110423.250000", "110425.265000", "110427.250000", "110429.750000", "110432.250000", "110434.250000", "110436.750000", "110439.250000", "110441.250000", "110443.750000", "110445.750000", "110448.250000", "110450.750000", "110452.750000", "110454.750000", "110457.250000", "110459.750000", "110502.250000", "110504.250000", "110506.250000", "110508.750000", "110511.250000", "110513.250000", "110515.750000", "110518.250000", "110520.750000", "110522.750000", "110524.781000", "110527.250000", "110529.750000", "110532.250000", "110534.250000", "110536.750000", "110538.750000", "110541.750000", "110543.750000", "110545.750000", "110547.750000", "110550.265000", "110552.750000", "110555.265000", "110557.750000", "110559.750000", "110602.750000", "110604.250000", "110607.250000", "110609.250000", "110611.750000", "110613.750000", "110616.250000", "110618.250000", "110620.750000", "110622.750000", "110625.750000", "110627.750000", "110629.750000", "110632.750000", "110635.265000", "110637.250000", "110639.750000", "110641.750000", "110644.250000", "110646.250000", "110649.250000", "110651.750000", "110653.750000", "110655.750000", "110657.750000", "110700.265000", "110702.250000", "110704.250000", "110706.750000", "110709.250000", "110711.250000", "110713.750000", "110715.750000", "110718.250000", "110720.750000", "110722.750000", "110725.265000", "110727.750000", "110729.750000", "110732.250000", "110734.250000", "110736.750000", "110739.250000", "110741.250000", "110743.750000", "110745.750000", "110748.250000", "110750.265000", "110752.750000", "110755.265000", "110758.250000", "110759.750000", "110802.250000", "110804.250000", "110806.750000", "110809.250000", "110811.750000", "110814.250000", "110816.250000", "110818.750000", "110821.250000", "110823.250000", "110825.750000", "110828.250000", "110830.265000", "110832.250000", "110834.250000", "110837.250000", "110839.250000", "110841.750000", "110844.250000", "110846.750000", "110849.250000", "110851.250000", "110853.250000", "110856.250000", "110858.250000", "110900.265000", "110902.750000", "110904.750000", "110907.750000", "110909.750000", "110912.250000", "110914.250000", "110916.750000", "110918.750000", "110921.250000", "110923.750000", "110925.750000", "110927.750000", "110930.265000", "110932.750000", "110934.750000", "110937.250000", "110939.750000", "110942.250000", "110944.250000", "110946.250000", "110948.750000", "110950.750000", "110953.750000", "110956.250000", "110958.250000", "111000.265000", "111002.750000", "111004.750000", "111006.750000", "111009.250000", "111011.250000", "111014.250000", "111016.265000", "111018.250000", "111020.750000", "111022.750000", "111025.750000", "111027.750000", "111030.265000", "111032.250000", "111034.250000", "111036.750000", "111039.750000", "111041.250000"],
      "DataSetTrailingPadding": [
        "\u0000\u0000\u0000\u0000\u0000\u0000\u0000\u0000\u0000\u0000\u0000\u0000\u0000\u0000\u0000\u0000\u0000\u0000\u0000\u0000\u0000\u0000",
        "\u0000\u0000\u0000\u0000\u0000\u0000\u0000\u0000\u0000\u0000\u0000\u0000\u0000\u0000\u0000\u0000\u0000\u0000\u0000\u0000",
        "\u0000\u0000\u0000\u0000\u0000\u0000\u0000\u0000\u0000\u0000\u0000\u0000\u0000\u0000\u0000\u0000\u0000\u0000\u0000\u0000",
        "\u0000\u0000\u0000\u0000\u0000\u0000\u0000\u0000\u0000\u0000\u0000\u0000\u0000\u0000\u0000\u0000\u0000\u0000\u0000\u0000\u0000\u0000",
        "\u0000\u0000\u0000\u0000\u0000\u0000\u0000\u0000\u0000\u0000\u0000\u0000\u0000\u0000\u0000\u0000\u0000\u0000\u0000\u0000\u0000\u0000",
        "\u0000\u0000\u0000\u0000\u0000\u0000\u0000\u0000\u0000\u0000\u0000\u0000\u0000\u0000\u0000\u0000\u0000\u0000\u0000\u0000\u0000\u0000",
        "\u0000\u0000\u0000\u0000\u0000\u0000\u0000\u0000\u0000\u0000\u0000\u0000\u0000\u0000\u0000\u0000\u0000\u0000\u0000\u0000",
        "\u0000\u0000\u0000\u0000\u0000\u0000\u0000\u0000\u0000\u0000\u0000\u0000\u0000\u0000\u0000\u0000\u0000\u0000\u0000\u0000",
        "\u0000\u0000\u0000\u0000\u0000\u0000\u0000\u0000\u0000\u0000\u0000\u0000\u0000\u0000\u0000\u0000\u0000\u0000\u0000\u0000\u0000\u0000",
        "\u0000\u0000\u0000\u0000\u0000\u0000\u0000\u0000\u0000\u0000\u0000\u0000\u0000\u0000\u0000\u0000\u0000\u0000",
        "\u0000\u0000\u0000\u0000\u0000\u0000\u0000\u0000\u0000\u0000\u0000\u0000\u0000\u0000\u0000\u0000\u0000\u0000",
        "\u0000\u0000\u0000\u0000\u0000\u0000\u0000\u0000\u0000\u0000\u0000\u0000\u0000\u0000\u0000\u0000",
        "\u0000\u0000\u0000\u0000\u0000\u0000\u0000\u0000\u0000\u0000\u0000\u0000\u0000\u0000\u0000\u0000",
        "\u0000\u0000\u0000\u0000\u0000\u0000\u0000\u0000\u0000\u0000\u0000\u0000\u0000\u0000\u0000\u0000\u0000\u0000",
        "\u0000\u0000\u0000\u0000\u0000\u0000\u0000\u0000\u0000\u0000\u0000\u0000\u0000\u0000\u0000\u0000\u0000\u0000",
        "\u0000\u0000\u0000\u0000\u0000\u0000\u0000\u0000\u0000\u0000\u0000\u0000\u0000\u0000\u0000\u0000",
        "\u0000\u0000\u0000\u0000\u0000\u0000\u0000\u0000\u0000\u0000\u0000\u0000\u0000\u0000\u0000\u0000",
        "\u0000\u0000\u0000\u0000\u0000\u0000\u0000\u0000\u0000\u0000\u0000\u0000\u0000\u0000\u0000\u0000",
        "\u0000\u0000\u0000\u0000\u0000\u0000\u0000\u0000\u0000\u0000\u0000\u0000\u0000\u0000\u0000\u0000\u0000\u0000",
        "\u0000\u0000\u0000\u0000\u0000\u0000\u0000\u0000\u0000\u0000\u0000\u0000\u0000\u0000\u0000\u0000\u0000\u0000",
        "\u0000\u0000\u0000\u0000\u0000\u0000\u0000\u0000\u0000\u0000\u0000\u0000\u0000\u0000\u0000\u0000",
        "\u0000\u0000\u0000\u0000\u0000\u0000\u0000\u0000\u0000\u0000\u0000\u0000\u0000\u0000\u0000\u0000",
        "\u0000\u0000\u0000\u0000\u0000\u0000\u0000\u0000\u0000\u0000\u0000\u0000\u0000\u0000\u0000\u0000",
        "\u0000\u0000\u0000\u0000\u0000\u0000\u0000\u0000\u0000\u0000\u0000\u0000\u0000\u0000\u0000\u0000\u0000\u0000",
        "\u0000\u0000\u0000\u0000\u0000\u0000\u0000\u0000\u0000\u0000\u0000\u0000\u0000\u0000\u0000\u0000\u0000\u0000",
        "\u0000\u0000\u0000\u0000\u0000\u0000\u0000\u0000\u0000\u0000\u0000\u0000\u0000\u0000\u0000\u0000",
        "\u0000\u0000\u0000\u0000\u0000\u0000\u0000\u0000\u0000\u0000\u0000\u0000\u0000\u0000\u0000\u0000",
        "\u0000\u0000\u0000\u0000\u0000\u0000\u0000\u0000\u0000\u0000\u0000\u0000\u0000\u0000\u0000\u0000",
        "\u0000\u0000\u0000\u0000\u0000\u0000\u0000\u0000\u0000\u0000\u0000\u0000\u0000\u0000\u0000\u0000\u0000\u0000",
        "\u0000\u0000\u0000\u0000\u0000\u0000\u0000\u0000\u0000\u0000\u0000\u0000\u0000\u0000\u0000\u0000\u0000\u0000",
        "\u0000\u0000\u0000\u0000\u0000\u0000\u0000\u0000\u0000\u0000\u0000\u0000\u0000\u0000\u0000\u0000",
        "\u0000\u0000\u0000\u0000\u0000\u0000\u0000\u0000\u0000\u0000\u0000\u0000\u0000\u0000\u0000\u0000",
        "\u0000\u0000\u0000\u0000\u0000\u0000\u0000\u0000\u0000\u0000\u0000\u0000\u0000\u0000\u0000\u0000",
        "\u0000\u0000\u0000\u0000\u0000\u0000\u0000\u0000\u0000\u0000\u0000\u0000\u0000\u0000\u0000\u0000\u0000\u0000",
        "\u0000\u0000\u0000\u0000\u0000\u0000\u0000\u0000\u0000\u0000\u0000\u0000\u0000\u0000\u0000\u0000\u0000\u0000",
        "\u0000\u0000\u0000\u0000\u0000\u0000\u0000\u0000\u0000\u0000\u0000\u0000\u0000\u0000\u0000\u0000",
        "\u0000\u0000\u0000\u0000\u0000\u0000\u0000\u0000\u0000\u0000\u0000\u0000\u0000\u0000\u0000\u0000\u0000\u0000",
        "\u0000\u0000\u0000\u0000\u0000\u0000\u0000\u0000\u0000\u0000\u0000\u0000\u0000\u0000\u0000\u0000\u0000\u0000",
        "\u0000\u0000\u0000\u0000\u0000\u0000\u0000\u0000\u0000\u0000\u0000\u0000\u0000\u0000\u0000\u0000\u0000\u0000",
        "\u0000\u0000\u0000\u0000\u0000\u0000\u0000\u0000\u0000\u0000\u0000\u0000\u0000\u0000\u0000\u0000\u0000\u0000\u0000\u0000",
        "\u0000\u0000\u0000\u0000\u0000\u0000\u0000\u0000\u0000\u0000\u0000\u0000\u0000\u0000\u0000\u0000",
        "\u0000\u0000\u0000\u0000\u0000\u0000\u0000\u0000\u0000\u0000\u0000\u0000\u0000\u0000\u0000\u0000",
        "\u0000\u0000\u0000\u0000\u0000\u0000\u0000\u0000\u0000\u0000\u0000\u0000\u0000\u0000\u0000\u0000\u0000\u0000",
        "\u0000\u0000\u0000\u0000\u0000\u0000\u0000\u0000\u0000\u0000\u0000\u0000\u0000\u0000\u0000\u0000\u0000\u0000",
        "\u0000\u0000\u0000\u0000\u0000\u0000\u0000\u0000\u0000\u0000\u0000\u0000\u0000\u0000\u0000\u0000\u0000\u0000",
        "\u0000\u0000\u0000\u0000\u0000\u0000\u0000\u0000\u0000\u0000\u0000\u0000\u0000\u0000\u0000\u0000",
        "\u0000\u0000\u0000\u0000\u0000\u0000\u0000\u0000\u0000\u0000\u0000\u0000\u0000\u0000\u0000\u0000",
        "\u0000\u0000\u0000\u0000\u0000\u0000\u0000\u0000\u0000\u0000\u0000\u0000\u0000\u0000\u0000\u0000\u0000\u0000",
        "\u0000\u0000\u0000\u0000\u0000\u0000\u0000\u0000\u0000\u0000\u0000\u0000\u0000\u0000\u0000\u0000\u0000\u0000",
        "\u0000\u0000\u0000\u0000\u0000\u0000\u0000\u0000\u0000\u0000\u0000\u0000\u0000\u0000\u0000\u0000\u0000\u0000",
        "\u0000\u0000\u0000\u0000\u0000\u0000\u0000\u0000\u0000\u0000\u0000\u0000\u0000\u0000\u0000\u0000",
        "\u0000\u0000\u0000\u0000\u0000\u0000\u0000\u0000\u0000\u0000\u0000\u0000\u0000\u0000\u0000\u0000",
        "\u0000\u0000\u0000\u0000\u0000\u0000\u0000\u0000\u0000\u0000\u0000\u0000\u0000\u0000\u0000\u0000\u0000\u0000",
        "\u0000\u0000\u0000\u0000\u0000\u0000\u0000\u0000\u0000\u0000\u0000\u0000\u0000\u0000\u0000\u0000\u0000\u0000",
        "\u0000\u0000\u0000\u0000\u0000\u0000\u0000\u0000\u0000\u0000\u0000\u0000\u0000\u0000\u0000\u0000",
        "\u0000\u0000\u0000\u0000\u0000\u0000\u0000\u0000\u0000\u0000\u0000\u0000\u0000\u0000\u0000\u0000",
        "\u0000\u0000\u0000\u0000\u0000\u0000\u0000\u0000\u0000\u0000\u0000\u0000",
        "\u0000\u0000\u0000\u0000\u0000\u0000\u0000\u0000\u0000\u0000\u0000\u0000\u0000\u0000",
        "\u0000\u0000\u0000\u0000\u0000\u0000\u0000\u0000\u0000\u0000\u0000\u0000\u0000\u0000",
        "\u0000\u0000\u0000\u0000\u0000\u0000\u0000\u0000\u0000\u0000\u0000\u0000",
        "\u0000\u0000\u0000\u0000\u0000\u0000\u0000\u0000\u0000\u0000\u0000\u0000",
        "\u0000\u0000\u0000\u0000\u0000\u0000\u0000\u0000\u0000\u0000\u0000\u0000",
        "\u0000\u0000\u0000\u0000\u0000\u0000\u0000\u0000\u0000\u0000\u0000\u0000\u0000\u0000",
        "\u0000\u0000\u0000\u0000\u0000\u0000\u0000\u0000\u0000\u0000\u0000\u0000",
        "\u0000\u0000\u0000\u0000\u0000\u0000\u0000\u0000\u0000\u0000\u0000\u0000",
        "\u0000\u0000\u0000\u0000\u0000\u0000\u0000\u0000\u0000\u0000\u0000\u0000",
        "\u0000\u0000\u0000\u0000\u0000\u0000\u0000\u0000\u0000\u0000\u0000\u0000",
        "\u0000\u0000\u0000\u0000\u0000\u0000\u0000\u0000\u0000\u0000\u0000\u0000\u0000\u0000",
        "\u0000\u0000\u0000\u0000\u0000\u0000\u0000\u0000\u0000\u0000\u0000\u0000",
        "\u0000\u0000\u0000\u0000\u0000\u0000\u0000\u0000\u0000\u0000\u0000\u0000",
        "\u0000\u0000\u0000\u0000\u0000\u0000\u0000\u0000\u0000\u0000\u0000\u0000",
        "\u0000\u0000\u0000\u0000\u0000\u0000\u0000\u0000\u0000\u0000\u0000\u0000",
        "\u0000\u0000\u0000\u0000\u0000\u0000\u0000\u0000\u0000\u0000\u0000\u0000\u0000\u0000\u0000\u0000",
        "\u0000\u0000\u0000\u0000\u0000\u0000\u0000\u0000\u0000\u0000\u0000\u0000",
        "\u0000\u0000\u0000\u0000\u0000\u0000\u0000\u0000\u0000\u0000\u0000\u0000",
        "\u0000\u0000\u0000\u0000\u0000\u0000\u0000\u0000\u0000\u0000\u0000\u0000\u0000\u0000\u0000\u0000",
        "\u0000\u0000\u0000\u0000\u0000\u0000\u0000\u0000\u0000\u0000\u0000\u0000",
        "\u0000\u0000\u0000\u0000\u0000\u0000\u0000\u0000\u0000\u0000\u0000\u0000\u0000\u0000",
        "\u0000\u0000\u0000\u0000\u0000\u0000\u0000\u0000\u0000\u0000\u0000\u0000",
        "\u0000\u0000\u0000\u0000\u0000\u0000\u0000\u0000\u0000\u0000\u0000\u0000",
        "\u0000\u0000\u0000\u0000\u0000\u0000\u0000\u0000\u0000\u0000\u0000\u0000\u0000\u0000",
        "\u0000\u0000\u0000\u0000\u0000\u0000\u0000\u0000\u0000\u0000\u0000\u0000",
        "\u0000\u0000\u0000\u0000\u0000\u0000\u0000\u0000\u0000\u0000\u0000\u0000\u0000\u0000",
        "\u0000\u0000\u0000\u0000\u0000\u0000\u0000\u0000\u0000\u0000\u0000\u0000",
        "\u0000\u0000\u0000\u0000\u0000\u0000\u0000\u0000\u0000\u0000\u0000\u0000",
        "\u0000\u0000\u0000\u0000\u0000\u0000\u0000\u0000\u0000\u0000\u0000\u0000",
        "\u0000\u0000\u0000\u0000\u0000\u0000\u0000\u0000\u0000\u0000\u0000\u0000",
        "\u0000\u0000\u0000\u0000\u0000\u0000\u0000\u0000\u0000\u0000\u0000\u0000\u0000\u0000",
        "\u0000\u0000\u0000\u0000\u0000\u0000\u0000\u0000\u0000\u0000\u0000\u0000",
        "\u0000\u0000\u0000\u0000\u0000\u0000\u0000\u0000\u0000\u0000\u0000\u0000",
        "\u0000\u0000\u0000\u0000\u0000\u0000\u0000\u0000\u0000\u0000\u0000\u0000",
        "\u0000\u0000\u0000\u0000\u0000\u0000\u0000\u0000\u0000\u0000\u0000\u0000",
        "\u0000\u0000\u0000\u0000\u0000\u0000\u0000\u0000\u0000\u0000\u0000\u0000\u0000\u0000",
        "\u0000\u0000\u0000\u0000\u0000\u0000\u0000\u0000\u0000\u0000\u0000\u0000",
        "\u0000\u0000\u0000\u0000\u0000\u0000\u0000\u0000\u0000\u0000\u0000\u0000",
        "\u0000\u0000\u0000\u0000\u0000\u0000\u0000\u0000\u0000\u0000\u0000\u0000",
        "\u0000\u0000\u0000\u0000\u0000\u0000\u0000\u0000\u0000\u0000\u0000\u0000",
        "\u0000\u0000\u0000\u0000\u0000\u0000\u0000\u0000\u0000\u0000\u0000\u0000\u0000\u0000",
        "\u0000\u0000\u0000\u0000\u0000\u0000\u0000\u0000\u0000\u0000\u0000\u0000",
        "\u0000\u0000\u0000\u0000\u0000\u0000\u0000\u0000",
