{
  "AcquisitionMatrixPE": 110,
  "AcquisitionNumber": 1,
  "AcquisitionTime": "16:25:12.370000",
  "BandwidthPerPixelPhaseEncode": 26.35,
  "BaseResolution": 110,
  "CoilString": "C:HEA;HEP",
  "ConversionSoftware": "dcm2niix",
  "ConversionSoftwareVersion": "v1.0.20190410  GCC6.3.0",
  "DerivedVendorReportedEchoSpacing": 0.000690012,
  "DeviceSerialNumber": "35422",
  "DwellTime": 2.6e-06,
  "EchoTime": 0.03,
  "EffectiveEchoSpacing": 0.000345006,
  "FlipAngle": 85,
  "ImageComments": "Unaliased_MB4_PE4_LB",
  "ImageOrientationPatientDICOM": [0.999997, -0.00040441, -0.00237677, 2.12589e-10, 0.985831, -0.16774],
  "ImageType": [
    "ORIGINAL",
    "PRIMARY",
    "FMRI",
    "NONE",
    "MB",
    "ND",
    "MOSAIC"
],
  "ImagingFrequency": 123.177,
  "InPlanePhaseEncodingDirectionDICOM": "ROW",
  "InstitutionAddress": "kwanakro_599_C4F276_Seoul_KR_ZIP",
  "InstitutionName": "SNUBIC",
  "InstitutionalDepartmentName": "Department",
  "MRAcquisitionType": "2D",
  "MagneticFieldStrength": 3,
  "Manufacturer": "Siemens",
  "ManufacturersModelName": "TrioTim",
  "Modality": "MR",
  "MultibandAccelerationFactor": 4,
  "ParallelReductionFactorInPlane": 2,
  "PartialFourier": 1,
  "PatientPosition": "HFS",
  "PercentPhaseFOV": 100,
  "PhaseEncodingDirection": "i-",
  "PhaseEncodingSteps": 110,
  "PhaseResolution": 1,
  "PixelBandwidth": 1748,
  "ProcedureStepDescription": "SNU_SAVED",
  "ProtocolName": "WMGNG2_MB4_LR_SBRef",
  "PulseSequenceDetails": "%CustomerSeq%_cmrr_mbep2d_bold",
  "ReceiveCoilName": "32Ch_Head",
  "ReconMatrixPE": 110,
  "RefLinesPE": 32,
  "RepetitionTime": 1.5,
  "SAR": 0.127099,
  "ScanOptions": "FS",
  "ScanningSequence": "EP",
  "SequenceName": "epfid2d1_110",
  "SequenceVariant": "SK_SS",
  "SeriesDescription": "WMGNG2_MB4_LR_SBRef",
  "SeriesNumber": 8,
  "ShimSetting": [-4127, -29753, -2080, 475, -58, 326, -344, -126],
  "SliceThickness": 2.3,
  "SliceTiming": [0, 0.66, 1.3175, 0.47, 1.13, 0.2825, 0.9425, 0.095, 0.7525, 1.4125, 0.565, 1.2225, 0.3775, 1.035, 0.1875, 0.8475, 0, 0.66, 1.3175, 0.47, 1.13, 0.2825, 0.9425, 0.095, 0.7525, 1.4125, 0.565, 1.2225, 0.3775, 1.035, 0.1875, 0.8475, 0, 0.66, 1.3175, 0.47, 1.13, 0.2825, 0.9425, 0.095, 0.7525, 1.4125, 0.565, 1.2225, 0.3775, 1.035, 0.1875, 0.8475, 0, 0.66, 1.3175, 0.47, 1.13, 0.2825, 0.9425, 0.095, 0.7525, 1.4125, 0.565, 1.2225, 0.3775, 1.035, 0.1875, 0.8475],
  "SoftwareVersions": "syngo_MR_B17",
  "SpacingBetweenSlices": 2.3,
  "StationName": "MRC35422",
  "TaskName": "wmgng",
  "TotalReadoutTime": 0.0376057,
  "TxRefAmp": 324.958,
  "dcmmeta_affine": [
    [-2.327265977859497, 4.947523501996898e-10, -0.005545142572373152, 129.27432250976562],
    [0.0009411723585799336, 2.2942981719970703, -0.3858009874820709, -105.78890228271484],
    [-0.00553139578551054, 0.39037683606147766, 2.2674052715301514, -67.03706359863281],
    [0.0, 0.0, 0.0, 1.0]
],
  "dcmmeta_reorient_transform": [
    [0.0, -1.0, 0.0, 109.0],
    [1.0, 0.0, 0.0, 0.0],
    [0.0, 0.0, 1.0, 0.0],
    [0.0, 0.0, 0.0, 1.0]
],
  "dcmmeta_shape": [110, 110, 64, 357],
  "dcmmeta_slice_dim": 2,
  "dcmmeta_version": 0.6,
  "global": {
    "const": {
      "AcquisitionMatrix": [0, 110, 110, 0],
      "AngioFlag": "N",
      "BitsAllocated": 16,
      "BitsStored": 12,
      "Columns": 880,
      "EchoNumbers": 1,
      "EchoTime": 30.0,
      "EchoTrainLength": 1,
      "FlipAngle": 85.0,
      "HighBit": 11,
      "ImageOrientationPatient": [0.99999709369996, -0.0004044100205, -0.0023767717973, 2.125889e-10, 0.9858312606874, -0.1677400532118],
      "ImagePositionPatient": [-1025.2716899991, -1027.2320218555, 127.93867892681],
      "ImageType": [
        "ORIGINAL",
        "PRIMARY",
        "FMRI",
        "NONE",
        "MB",
        "ND",
        "MOSAIC"
],
      "ImagedNucleus": "1H",
      "ImagingFrequency": 123.177437,
      "InPlanePhaseEncodingDirection": "ROW",
      "MRAcquisitionType": "2D",
      "MagneticFieldStrength": 3.0,
      "Manufacturer": "SIEMENS",
      "ManufacturerModelName": "TrioTim",
      "Modality": "MR",
      "NumberOfAverages": 1.0,
      "NumberOfPhaseEncodingSteps": 110,
      "PercentPhaseFieldOfView": 100.0,
      "PercentSampling": 100.0,
      "PerformedProcedureStepStartTime": "155650.375000",
      "PhotometricInterpretation": "MONOCHROME2",
      "PixelBandwidth": 1748.0,
      "PixelRepresentation": 0,
      "PixelSpacing": [2.3272726535797, 2.3272726535797],
      "ProtocolName": "WMGNG2_MB4_LR_SBRef",
      "ReferencedPerformedProcedureStepSequence": [
        {
          "ReferencedSOPClassUID": "1.2.840.10008.3.1.2.3.3",
          "ReferencedSOPInstanceUID": "1.3.12.2.1107.5.2.32.35422.30000019121106565040600000000"}
],
      "RepetitionTime": 1500.0,
      "Rows": 880,
      "SAR": 0.12709855587632,
      "SamplesPerPixel": 1,
      "ScanOptions": "FS",
      "ScanningSequence": "EP",
      "SequenceName": "epfid2d1_110",
      "SequenceVariant": [
        "SK",
        "SS"
],
      "SeriesDescription": "WMGNG2_MB4_LR_SBRef",
      "SeriesNumber": 8,
      "SeriesTime": "163016.843000",
      "SliceLocation": -48.653730664564,
      "SliceThickness": 2.2999999523163,
      "SmallestImagePixelValue": 0,
      "SoftwareVersions": "syngo MR B17",
      "SpacingBetweenSlices": 2.2999999429943,
      "SpecificCharacterSet": "ISO_IR 100",
      "StudyID": "1",
      "StudyTime": "155648.203000",
      "TransmitCoilName": "Body",
      "VariableFlipAngleFlag": "N",
      "WindowCenterWidthExplanation": "Algo1",
      "dBdt": 0.0},
    "slices": {}
  },
  "time": {
    "samples": {
      "AcquisitionNumber": [1, 2, 3, 4, 5, 6, 7, 8, 9, 10, 11, 12, 13, 14, 15, 16, 17, 18, 19, 20, 21, 22, 23, 24, 25, 26, 27, 28, 29, 30, 31, 32, 33, 34, 35, 36, 37, 38, 39, 40, 41, 42, 43, 44, 45, 46, 47, 48, 49, 50, 51, 52, 53, 54, 55, 56, 57, 58, 59, 60, 61, 62, 63, 64, 65, 66, 67, 68, 69, 70, 71, 72, 73, 74, 75, 76, 77, 78, 79, 80, 81, 82, 83, 84, 85, 86, 87, 88, 89, 90, 91, 92, 93, 94, 95, 96, 97, 98, 99, 100, 101, 102, 103, 104, 105, 106, 107, 108, 109, 110, 111, 112, 113, 114, 115, 116, 117, 118, 119, 120, 121, 122, 123, 124, 125, 126, 127, 128, 129, 130, 131, 132, 133, 134, 135, 136, 137, 138, 139, 140, 141, 142, 143, 144, 145, 146, 147, 148, 149, 150, 151, 152, 153, 154, 155, 156, 157, 158, 159, 160, 161, 162, 163, 164, 165, 166, 167, 168, 169, 170, 171, 172, 173, 174, 175, 176, 177, 178, 179, 180, 181, 182, 183, 184, 185, 186, 187, 188, 189, 190, 191, 192, 193, 194, 195, 196, 197, 198, 199, 200, 201, 202, 203, 204, 205, 206, 207, 208, 209, 210, 211, 212, 213, 214, 215, 216, 217, 218, 219, 220, 221, 222, 223, 224, 225, 226, 227, 228, 229, 230, 231, 232, 233, 234, 235, 236, 237, 238, 239, 240, 241, 242, 243, 244, 245, 246, 247, 248, 249, 250, 251, 252, 253, 254, 255, 256, 257, 258, 259, 260, 261, 262, 263, 264, 265, 266, 267, 268, 269, 270, 271, 272, 273, 274, 275, 276, 277, 278, 279, 280, 281, 282, 283, 284, 285, 286, 287, 288, 289, 290, 291, 292, 293, 294, 295, 296, 297, 298, 299, 300, 301, 302, 303, 304, 305, 306, 307, 308, 309, 310, 311, 312, 313, 314, 315, 316, 317, 318, 319, 320, 321, 322, 323, 324, 325, 326, 327, 328, 329, 330, 331, 332, 333, 334, 335, 336, 337, 338, 339, 340, 341, 342, 343, 344, 345, 346, 347, 348, 349, 350, 351, 352, 353, 354, 355, 356, 357],
      "AcquisitionTime": ["162512.370000", "162513.877500", "162515.382500", "162516.887500", "162518.395000", "162519.900000", "162521.407500", "162522.912500", "162524.417500", "162525.925000", "162527.430000", "162528.937500", "162530.442500", "162531.950000", "162533.455000", "162534.960000", "162536.467500", "162537.972500", "162539.480000", "162540.985000", "162542.490000", "162543.997500", "162545.502500", "162547.010000", "162548.515000", "162550.020000", "162551.527500", "162553.032500", "162554.540000", "162556.045000", "162557.550000", "162559.057500", "162600.562500", "162602.070000", "162603.575000", "162605.082500", "162606.587500", "162608.092500", "162609.600000", "162611.105000", "162612.612500", "162614.117500", "162615.622500", "162617.130000", "162618.635000", "162620.142500", "162621.647500", "162623.152500", "162624.660000", "162626.165000", "162627.672500", "162629.177500", "162630.682500", "162632.190000", "162633.695000", "162635.202500", "162636.707500", "162638.215000", "162639.720000", "162641.225000", "162642.732500", "162644.237500", "162645.745000", "162647.250000", "162648.755000", "162650.262500", "162651.767500", "162653.275000", "162654.780000", "162656.285000", "162657.792500", "162659.297500", "162700.805000", "162702.310000", "162703.817500", "162705.322500", "162706.827500", "162708.335000", "162709.840000", "162711.347500", "162712.852500", "162714.357500", "162715.865000", "162717.370000", "162718.877500", "162720.382500", "162721.887500", "162723.395000", "162724.900000", "162726.407500", "162727.912500", "162729.417500", "162730.925000", "162732.430000", "162733.937500", "162735.442500", "162736.950000", "162738.455000", "162739.960000", "162741.467500", "162742.972500", "162744.480000", "162745.985000", "162747.490000", "162748.997500", "162750.502500", "162752.010000", "162753.515000", "162755.020000", "162756.527500", "162758.032500", "162759.540000", "162801.045000", "162802.550000", "162804.057500", "162805.562500", "162807.070000", "162808.575000", "162810.082500", "162811.587500", "162813.092500", "162814.600000", "162816.105000", "162817.612500", "162819.117500", "162820.622500", "162822.130000", "162823.635000", "162825.142500", "162826.647500", "162828.152500", "162829.660000", "162831.165000", "162832.672500", "162834.177500", "162835.682500", "162837.190000", "162838.695000", "162840.202500", "162841.707500", "162843.215000", "162844.720000", "162846.225000", "162847.732500", "162849.237500", "162850.745000", "162852.250000", "162853.755000", "162855.262500", "162856.767500", "162858.275000", "162859.780000", "162901.285000", "162902.792500", "162904.297500", "162905.805000", "162907.310000", "162908.817500", "162910.322500", "162911.827500", "162913.335000", "162914.840000", "162916.347500", "162917.852500", "162919.357500", "162920.865000", "162922.370000", "162923.877500", "162925.382500", "162926.887500", "162928.395000", "162929.900000", "162931.407500", "162932.912500", "162934.417500", "162935.925000", "162937.430000", "162938.937500", "162940.442500", "162941.950000", "162943.455000", "162944.960000", "162946.467500", "162947.972500", "162949.480000", "162950.985000", "162952.490000", "162953.997500", "162955.502500", "162957.010000", "162958.515000", "163000.020000", "163001.527500", "163003.032500", "163004.540000", "163006.045000", "163007.550000", "163009.057500", "163010.562500", "163012.070000", "163013.575000", "163015.082500", "163016.587500", "163018.092500", "163019.600000", "163021.105000", "163022.612500", "163024.117500", "163025.622500", "163027.130000", "163028.635000", "163030.142500", "163031.647500", "163033.152500", "163034.660000", "163036.165000", "163037.672500", "163039.177500", "163040.682500", "163042.190000", "163043.695000", "163045.202500", "163046.707500", "163048.215000", "163049.720000", "163051.225000", "163052.732500", "163054.237500", "163055.745000", "163057.250000", "163058.755000", "163100.262500", "163101.767500", "163103.275000", "163104.780000", "163106.285000", "163107.792500", "163109.297500", "163110.805000", "163112.310000", "163113.817500", "163115.322500", "163116.827500", "163118.335000", "163119.840000", "163121.347500", "163122.852500", "163124.357500", "163125.865000", "163127.370000", "163128.877500", "163130.382500", "163131.887500", "163133.395000", "163134.900000", "163136.407500", "163137.912500", "163139.417500", "163140.925000", "163142.430000", "163143.937500", "163145.442500", "163146.950000", "163148.455000", "163149.960000", "163151.467500", "163152.972500", "163154.480000", "163155.985000", "163157.490000", "163158.997500", "163200.502500", "163202.010000", "163203.515000", "163205.020000", "163206.527500", "163208.032500", "163209.540000", "163211.045000", "163212.550000", "163214.057500", "163215.562500", "163217.070000", "163218.575000", "163220.082500", "163221.587500", "163223.092500", "163224.600000", "163226.105000", "163227.612500", "163229.117500", "163230.622500", "163232.130000", "163233.635000", "163235.142500", "163236.647500", "163238.152500", "163239.660000", "163241.165000", "163242.672500", "163244.177500", "163245.682500", "163247.190000", "163248.695000", "163250.202500", "163251.707500", "163253.215000", "163254.720000", "163256.225000", "163257.732500", "163259.237500", "163300.745000", "163302.250000", "163303.755000", "163305.262500", "163306.767500", "163308.275000", "163309.780000", "163311.285000", "163312.792500", "163314.297500", "163315.805000", "163317.310000", "163318.817500", "163320.322500", "163321.827500", "163323.335000", "163324.840000", "163326.347500", "163327.852500", "163329.357500", "163330.865000", "163332.370000", "163333.877500", "163335.382500", "163336.887500", "163338.395000", "163339.900000", "163341.407500", "163342.912500", "163344.417500", "163345.925000", "163347.430000", "163348.937500", "163350.442500", "163351.950000", "163353.455000", "163354.960000", "163356.467500", "163357.972500", "163359.480000", "163400.985000", "163402.490000", "163403.997500", "163405.502500", "163407.010000", "163408.515000"],
      "ContentTime": ["163016.843000", "163016.843000", "163016.859000", "163016.859000", "163016.859000", "163016.859000", "163016.859000", "163016.859000", "163116.828000", "163116.828000", "163116.828000", "163116.828000", "163116.828000", "163116.828000", "163116.843000", "163116.843000", "163116.843000", "163116.859000", "163116.859000", "163116.859000", "163116.859000", "163116.859000", "163116.859000", "163116.859000", "163116.859000", "163116.859000", "163116.859000", "163116.875000", "163116.875000", "163116.875000", "163116.875000", "163116.875000", "163116.875000", "163116.875000", "163216.828000", "163216.828000", "163216.828000", "163216.828000", "163216.828000", "163216.828000", "163216.843000", "163216.843000", "163216.843000", "163216.843000", "163216.843000", "163216.843000", "163216.843000", "163216.859000", "163216.859000", "163216.859000", "163216.859000", "163216.859000", "163216.859000", "163216.859000", "163216.859000", "163216.859000", "163216.875000", "163216.875000", "163216.875000", "163216.875000", "163316.828000", "163316.828000", "163316.828000", "163316.828000", "163316.843000", "163316.843000", "163316.843000", "163316.843000", "163316.843000", "163316.843000", "163316.843000", "163316.859000", "163316.859000", "163316.859000", "163316.859000", "163316.875000", "163316.875000", "163316.875000", "163316.875000", "163316.875000", "163316.875000", "163316.875000", "163316.875000", "163316.875000", "163316.890000", "163316.890000", "163416.828000", "163416.828000", "163416.828000", "163416.828000", "163416.828000", "163416.843000", "163416.843000", "163416.843000", "163416.843000", "163416.859000", "163416.859000", "163416.859000", "163416.859000", "163416.859000", "163416.859000", "163416.875000", "163416.875000", "163416.875000", "163416.875000", "163416.875000", "163416.875000", "163416.875000", "163416.890000", "163416.890000", "163416.890000", "163416.890000", "163516.828000", "163516.828000", "163516.828000", "163516.828000", "163516.828000", "163516.828000", "163516.828000", "163516.843000", "163516.843000", "163516.843000", "163516.843000", "163516.843000", "163516.843000", "163516.843000", "163516.843000", "163516.859000", "163516.859000", "163516.859000", "163516.859000", "163516.859000", "163516.859000", "163516.859000", "163516.859000", "163516.875000", "163516.875000", "163516.875000", "163616.828000", "163616.828000", "163616.828000", "163616.828000", "163616.828000", "163616.828000", "163616.843000", "163616.843000", "163616.843000", "163616.843000", "163616.843000", "163616.843000", "163616.843000", "163616.843000", "163616.843000", "163616.859000", "163616.859000", "163616.859000", "163616.859000", "163616.859000", "163616.859000", "163616.859000", "163616.859000", "163616.859000", "163616.875000", "163616.875000", "163636.828000", "163636.828000", "163636.828000", "163636.843000", "163636.843000", "163636.843000", "163636.843000", "163636.843000", "163636.843000", "163736.828000", "163736.828000", "163736.828000", "163736.828000", "163736.828000", "163736.828000", "163736.843000", "163736.843000", "163736.843000", "163736.843000", "163736.843000", "163736.843000", "163736.843000", "163736.843000", "163736.843000", "163736.859000", "163736.859000", "163736.859000", "163736.859000", "163736.859000", "163736.859000", "163736.859000", "163736.859000", "163736.859000", "163736.875000", "163736.875000", "163836.828000", "163836.828000", "163836.828000", "163836.828000", "163836.828000", "163836.828000", "163836.843000", "163836.843000", "163836.843000", "163836.843000", "163836.843000", "163836.843000", "163836.843000", "163836.843000", "163836.843000", "163836.859000", "163836.859000", "163836.859000", "163836.859000", "163836.859000", "163836.859000", "163836.859000", "163836.859000", "163836.859000", "163836.875000", "163836.875000", "163936.828000", "163936.828000", "163936.828000", "163936.828000", "163936.828000", "163936.828000", "163936.843000", "163936.843000", "163936.843000", "163936.843000", "163936.843000", "163936.859000", "163936.859000", "163936.859000", "163936.859000", "163936.859000", "163936.859000", "163936.859000", "163936.875000", "163936.875000", "163936.875000", "163936.875000", "163936.875000", "163936.875000", "163936.875000", "163936.875000", "164036.828000", "164036.828000", "164036.828000", "164036.828000", "164036.828000", "164036.843000", "164036.843000", "164036.843000", "164036.843000", "164036.843000", "164036.843000", "164036.843000", "164036.859000", "164036.859000", "164036.859000", "164036.859000", "164036.859000", "164036.859000", "164036.859000", "164036.859000", "164036.859000", "164036.875000", "164036.875000", "164036.875000", "164036.890000", "164036.890000", "164136.828000", "164136.828000", "164136.828000", "164136.828000", "164136.828000", "164136.828000", "164136.828000", "164136.843000", "164136.843000", "164136.843000", "164136.843000", "164136.843000", "164136.843000", "164136.843000", "164136.843000", "164136.843000", "164136.859000", "164136.859000", "164136.859000", "164136.859000", "164136.859000", "164136.859000", "164136.859000", "164136.859000", "164136.875000", "164136.875000", "164236.828000", "164236.828000", "164236.828000", "164236.828000", "164236.828000", "164236.828000", "164236.828000", "164236.843000", "164236.843000", "164236.843000", "164236.843000", "164236.843000", "164236.843000", "164236.843000", "164236.843000", "164236.843000", "164236.859000", "164236.859000", "164236.859000", "164236.859000", "164236.859000", "164236.859000", "164236.859000", "164236.875000", "164236.875000", "164236.875000", "164336.828000", "164336.828000", "164336.828000", "164336.828000", "164336.828000", "164336.843000", "164336.843000", "164336.843000", "164336.843000", "164336.843000", "164336.843000", "164336.859000", "164336.859000", "164336.859000", "164336.859000", "164336.859000", "164336.875000", "164336.875000", "164336.875000", "164336.890000", "164336.890000", "164336.890000", "164336.890000", "164336.890000", "164336.890000", "164336.890000", "164341.031000", "164341.046000"],
      "DataSetTrailingPadding": [
        "\u0000\u0000\u0000\u0000\u0000\u0000\u0000\u0000\u0000\u0000\u0000\u0000\u0000\u0000\u0000\u0000\u0000\u0000\u0000\u0000\u0000\u0000\u0000\u0000",
        "\u0000\u0000\u0000\u0000\u0000\u0000\u0000\u0000\u0000\u0000\u0000\u0000\u0000\u0000\u0000\u0000\u0000\u0000\u0000\u0000\u0000\u0000\u0000\u0000",
        "\u0000\u0000\u0000\u0000\u0000\u0000\u0000\u0000\u0000\u0000\u0000\u0000\u0000\u0000\u0000\u0000\u0000\u0000\u0000\u0000\u0000\u0000\u0000\u0000\u0000\u0000",
        "\u0000\u0000\u0000\u0000\u0000\u0000\u0000\u0000\u0000\u0000\u0000\u0000\u0000\u0000\u0000\u0000\u0000\u0000\u0000\u0000\u0000\u0000\u0000\u0000\u0000\u0000",
        "\u0000\u0000\u0000\u0000\u0000\u0000\u0000\u0000\u0000\u0000\u0000\u0000\u0000\u0000\u0000\u0000\u0000\u0000\u0000\u0000\u0000\u0000\u0000\u0000\u0000\u0000",
        "\u0000\u0000\u0000\u0000\u0000\u0000\u0000\u0000\u0000\u0000\u0000\u0000\u0000\u0000\u0000\u0000\u0000\u0000\u0000\u0000\u0000\u0000\u0000\u0000",
        "\u0000\u0000\u0000\u0000\u0000\u0000\u0000\u0000\u0000\u0000\u0000\u0000\u0000\u0000\u0000\u0000\u0000\u0000\u0000\u0000\u0000\u0000\u0000\u0000",
        "\u0000\u0000\u0000\u0000\u0000\u0000\u0000\u0000\u0000\u0000\u0000\u0000\u0000\u0000\u0000\u0000\u0000\u0000\u0000\u0000\u0000\u0000\u0000\u0000\u0000\u0000",
        "\u0000\u0000\u0000\u0000\u0000\u0000\u0000\u0000\u0000\u0000\u0000\u0000\u0000\u0000\u0000\u0000\u0000\u0000\u0000\u0000\u0000\u0000\u0000\u0000\u0000\u0000",
        "\u0000\u0000\u0000\u0000\u0000\u0000\u0000\u0000\u0000\u0000\u0000\u0000\u0000\u0000\u0000\u0000\u0000\u0000\u0000\u0000\u0000\u0000",
        "\u0000\u0000\u0000\u0000\u0000\u0000\u0000\u0000\u0000\u0000\u0000\u0000\u0000\u0000\u0000\u0000\u0000\u0000\u0000\u0000",
        "\u0000\u0000\u0000\u0000\u0000\u0000\u0000\u0000\u0000\u0000\u0000\u0000\u0000\u0000\u0000\u0000\u0000\u0000\u0000\u0000",
        "\u0000\u0000\u0000\u0000\u0000\u0000\u0000\u0000\u0000\u0000\u0000\u0000\u0000\u0000\u0000\u0000\u0000\u0000\u0000\u0000\u0000\u0000",
        "\u0000\u0000\u0000\u0000\u0000\u0000\u0000\u0000\u0000\u0000\u0000\u0000\u0000\u0000\u0000\u0000\u0000\u0000\u0000\u0000\u0000\u0000\u0000\u0000",
        "\u0000\u0000\u0000\u0000\u0000\u0000\u0000\u0000\u0000\u0000\u0000\u0000\u0000\u0000\u0000\u0000\u0000\u0000\u0000\u0000",
        "\u0000\u0000\u0000\u0000\u0000\u0000\u0000\u0000\u0000\u0000\u0000\u0000\u0000\u0000\u0000\u0000\u0000\u0000\u0000\u0000",
        "\u0000\u0000\u0000\u0000\u0000\u0000\u0000\u0000\u0000\u0000\u0000\u0000\u0000\u0000\u0000\u0000\u0000\u0000\u0000\u0000",
        "\u0000\u0000\u0000\u0000\u0000\u0000\u0000\u0000\u0000\u0000\u0000\u0000\u0000\u0000\u0000\u0000\u0000\u0000\u0000\u0000\u0000\u0000",
        "\u0000\u0000\u0000\u0000\u0000\u0000\u0000\u0000\u0000\u0000\u0000\u0000\u0000\u0000\u0000\u0000\u0000\u0000\u0000\u0000\u0000\u0000",
        "\u0000\u0000\u0000\u0000\u0000\u0000\u0000\u0000\u0000\u0000\u0000\u0000\u0000\u0000\u0000\u0000\u0000\u0000\u0000\u0000",
        "\u0000\u0000\u0000\u0000\u0000\u0000\u0000\u0000\u0000\u0000\u0000\u0000\u0000\u0000\u0000\u0000\u0000\u0000\u0000\u0000",
        "\u0000\u0000\u0000\u0000\u0000\u0000\u0000\u0000\u0000\u0000\u0000\u0000\u0000\u0000\u0000\u0000\u0000\u0000\u0000\u0000",
        "\u0000\u0000\u0000\u0000\u0000\u0000\u0000\u0000\u0000\u0000\u0000\u0000\u0000\u0000\u0000\u0000\u0000\u0000\u0000\u0000\u0000\u0000\u0000\u0000",
        "\u0000\u0000\u0000\u0000\u0000\u0000\u0000\u0000\u0000\u0000\u0000\u0000\u0000\u0000\u0000\u0000\u0000\u0000\u0000\u0000\u0000\u0000",
        "\u0000\u0000\u0000\u0000\u0000\u0000\u0000\u0000\u0000\u0000\u0000\u0000\u0000\u0000\u0000\u0000\u0000\u0000\u0000\u0000",
        "\u0000\u0000\u0000\u0000\u0000\u0000\u0000\u0000\u0000\u0000\u0000\u0000\u0000\u0000\u0000\u0000\u0000\u0000\u0000\u0000",
        "\u0000\u0000\u0000\u0000\u0000\u0000\u0000\u0000\u0000\u0000\u0000\u0000\u0000\u0000\u0000\u0000\u0000\u0000\u0000\u0000",
        "\u0000\u0000\u0000\u0000\u0000\u0000\u0000\u0000\u0000\u0000\u0000\u0000\u0000\u0000\u0000\u0000\u0000\u0000\u0000\u0000\u0000\u0000",
        "\u0000\u0000\u0000\u0000\u0000\u0000\u0000\u0000\u0000\u0000\u0000\u0000\u0000\u0000\u0000\u0000\u0000\u0000\u0000\u0000\u0000\u0000",
        "\u0000\u0000\u0000\u0000\u0000\u0000\u0000\u0000\u0000\u0000\u0000\u0000\u0000\u0000\u0000\u0000\u0000\u0000\u0000\u0000\u0000\u0000\u0000\u0000",
        "\u0000\u0000\u0000\u0000\u0000\u0000\u0000\u0000\u0000\u0000\u0000\u0000\u0000\u0000\u0000\u0000\u0000\u0000\u0000\u0000",
        "\u0000\u0000\u0000\u0000\u0000\u0000\u0000\u0000\u0000\u0000\u0000\u0000\u0000\u0000\u0000\u0000\u0000\u0000\u0000\u0000\u0000\u0000",
        "\u0000\u0000\u0000\u0000\u0000\u0000\u0000\u0000\u0000\u0000\u0000\u0000\u0000\u0000\u0000\u0000\u0000\u0000\u0000\u0000\u0000\u0000",
        "\u0000\u0000\u0000\u0000\u0000\u0000\u0000\u0000\u0000\u0000\u0000\u0000\u0000\u0000\u0000\u0000\u0000\u0000\u0000\u0000\u0000\u0000",
        "\u0000\u0000\u0000\u0000\u0000\u0000\u0000\u0000\u0000\u0000\u0000\u0000\u0000\u0000\u0000\u0000\u0000\u0000\u0000\u0000",
        "\u0000\u0000\u0000\u0000\u0000\u0000\u0000\u0000\u0000\u0000\u0000\u0000\u0000\u0000\u0000\u0000\u0000\u0000\u0000\u0000\u0000\u0000",
        "\u0000\u0000\u0000\u0000\u0000\u0000\u0000\u0000\u0000\u0000\u0000\u0000\u0000\u0000\u0000\u0000\u0000\u0000\u0000\u0000\u0000\u0000",
        "\u0000\u0000\u0000\u0000\u0000\u0000\u0000\u0000\u0000\u0000\u0000\u0000\u0000\u0000\u0000\u0000\u0000\u0000\u0000\u0000\u0000\u0000",
        "\u0000\u0000\u0000\u0000\u0000\u0000\u0000\u0000\u0000\u0000\u0000\u0000\u0000\u0000\u0000\u0000\u0000\u0000\u0000\u0000\u0000\u0000",
        "\u0000\u0000\u0000\u0000\u0000\u0000\u0000\u0000\u0000\u0000\u0000\u0000\u0000\u0000\u0000\u0000\u0000\u0000\u0000\u0000",
        "\u0000\u0000\u0000\u0000\u0000\u0000\u0000\u0000\u0000\u0000\u0000\u0000\u0000\u0000\u0000\u0000\u0000\u0000\u0000\u0000",
        "\u0000\u0000\u0000\u0000\u0000\u0000\u0000\u0000\u0000\u0000\u0000\u0000\u0000\u0000\u0000\u0000\u0000\u0000\u0000\u0000\u0000\u0000",
        "\u0000\u0000\u0000\u0000\u0000\u0000\u0000\u0000\u0000\u0000\u0000\u0000\u0000\u0000\u0000\u0000\u0000\u0000\u0000\u0000\u0000\u0000",
        "\u0000\u0000\u0000\u0000\u0000\u0000\u0000\u0000\u0000\u0000\u0000\u0000\u0000\u0000\u0000\u0000\u0000\u0000\u0000\u0000\u0000\u0000",
        "\u0000\u0000\u0000\u0000\u0000\u0000\u0000\u0000\u0000\u0000\u0000\u0000\u0000\u0000\u0000\u0000\u0000\u0000\u0000\u0000",
        "\u0000\u0000\u0000\u0000\u0000\u0000\u0000\u0000\u0000\u0000\u0000\u0000\u0000\u0000\u0000\u0000\u0000\u0000\u0000\u0000",
        "\u0000\u0000\u0000\u0000\u0000\u0000\u0000\u0000\u0000\u0000\u0000\u0000\u0000\u0000\u0000\u0000\u0000\u0000\u0000\u0000\u0000\u0000",
        "\u0000\u0000\u0000\u0000\u0000\u0000\u0000\u0000\u0000\u0000\u0000\u0000\u0000\u0000\u0000\u0000\u0000\u0000\u0000\u0000\u0000\u0000",
        "\u0000\u0000\u0000\u0000\u0000\u0000\u0000\u0000\u0000\u0000\u0000\u0000\u0000\u0000\u0000\u0000\u0000\u0000\u0000\u0000\u0000\u0000",
        "\u0000\u0000\u0000\u0000\u0000\u0000\u0000\u0000\u0000\u0000\u0000\u0000\u0000\u0000\u0000\u0000\u0000\u0000\u0000\u0000",
        "\u0000\u0000\u0000\u0000\u0000\u0000\u0000\u0000\u0000\u0000\u0000\u0000\u0000\u0000\u0000\u0000\u0000\u0000\u0000\u0000",
        "\u0000\u0000\u0000\u0000\u0000\u0000\u0000\u0000\u0000\u0000\u0000\u0000\u0000\u0000\u0000\u0000\u0000\u0000\u0000\u0000\u0000\u0000",
        "\u0000\u0000\u0000\u0000\u0000\u0000\u0000\u0000\u0000\u0000\u0000\u0000\u0000\u0000\u0000\u0000\u0000\u0000\u0000\u0000\u0000\u0000",
        "\u0000\u0000\u0000\u0000\u0000\u0000\u0000\u0000\u0000\u0000\u0000\u0000\u0000\u0000\u0000\u0000\u0000\u0000\u0000\u0000",
        "\u0000\u0000\u0000\u0000\u0000\u0000\u0000\u0000\u0000\u0000\u0000\u0000\u0000\u0000\u0000\u0000\u0000\u0000\u0000\u0000",
        "\u0000\u0000\u0000\u0000\u0000\u0000\u0000\u0000\u0000\u0000\u0000\u0000\u0000\u0000\u0000\u0000\u0000\u0000\u0000\u0000",
        "\u0000\u0000\u0000\u0000\u0000\u0000\u0000\u0000\u0000\u0000\u0000\u0000\u0000\u0000\u0000\u0000",
        "\u0000\u0000\u0000\u0000\u0000\u0000\u0000\u0000\u0000\u0000\u0000\u0000\u0000\u0000\u0000\u0000\u0000\u0000",
        "\u0000\u0000\u0000\u0000\u0000\u0000\u0000\u0000\u0000\u0000\u0000\u0000\u0000\u0000\u0000\u0000",
        "\u0000\u0000\u0000\u0000\u0000\u0000\u0000\u0000\u0000\u0000\u0000\u0000\u0000\u0000\u0000\u0000",
        "\u0000\u0000\u0000\u0000\u0000\u0000\u0000\u0000\u0000\u0000\u0000\u0000\u0000\u0000\u0000\u0000",
        "\u0000\u0000\u0000\u0000\u0000\u0000\u0000\u0000\u0000\u0000\u0000\u0000\u0000\u0000\u0000\u0000",
        "\u0000\u0000\u0000\u0000\u0000\u0000\u0000\u0000\u0000\u0000\u0000\u0000\u0000\u0000\u0000\u0000\u0000\u0000",
        "\u0000\u0000\u0000\u0000\u0000\u0000\u0000\u0000\u0000\u0000\u0000\u0000\u0000\u0000\u0000\u0000",
        "\u0000\u0000\u0000\u0000\u0000\u0000\u0000\u0000\u0000\u0000\u0000\u0000\u0000\u0000\u0000\u0000",
        "\u0000\u0000\u0000\u0000\u0000\u0000\u0000\u0000\u0000\u0000\u0000\u0000\u0000\u0000\u0000\u0000",
        "\u0000\u0000\u0000\u0000\u0000\u0000\u0000\u0000\u0000\u0000\u0000\u0000\u0000\u0000\u0000\u0000",
        "\u0000\u0000\u0000\u0000\u0000\u0000\u0000\u0000\u0000\u0000\u0000\u0000\u0000\u0000\u0000\u0000\u0000\u0000",
        "\u0000\u0000\u0000\u0000\u0000\u0000\u0000\u0000\u0000\u0000\u0000\u0000\u0000\u0000\u0000\u0000",
        "\u0000\u0000\u0000\u0000\u0000\u0000\u0000\u0000\u0000\u0000\u0000\u0000\u0000\u0000\u0000\u0000",
        "\u0000\u0000\u0000\u0000\u0000\u0000\u0000\u0000\u0000\u0000\u0000\u0000\u0000\u0000\u0000\u0000",
        "\u0000\u0000\u0000\u0000\u0000\u0000\u0000\u0000\u0000\u0000\u0000\u0000\u0000\u0000\u0000\u0000",
        "\u0000\u0000\u0000\u0000\u0000\u0000\u0000\u0000\u0000\u0000\u0000\u0000\u0000\u0000\u0000\u0000\u0000\u0000\u0000\u0000",
        "\u0000\u0000\u0000\u0000\u0000\u0000\u0000\u0000\u0000\u0000\u0000\u0000\u0000\u0000\u0000\u0000\u0000\u0000\u0000\u0000",
        "\u0000\u0000\u0000\u0000\u0000\u0000\u0000\u0000\u0000\u0000\u0000\u0000\u0000\u0000\u0000\u0000\u0000\u0000",
        "\u0000\u0000\u0000\u0000\u0000\u0000\u0000\u0000\u0000\u0000\u0000\u0000\u0000\u0000\u0000\u0000\u0000\u0000",
        "\u0000\u0000\u0000\u0000\u0000\u0000\u0000\u0000\u0000\u0000\u0000\u0000\u0000\u0000\u0000\u0000",
        "\u0000\u0000\u0000\u0000\u0000\u0000\u0000\u0000\u0000\u0000\u0000\u0000\u0000\u0000\u0000\u0000\u0000\u0000",
