{
  "AcquisitionMatrixPE": 110,
  "AcquisitionNumber": 1,
  "AcquisitionTime": "13:48:0.357500",
  "BandwidthPerPixelPhaseEncode": 26.35,
  "BaseResolution": 110,
  "CoilString": "C:HEA;HEP",
  "ConversionSoftware": "dcm2niix",
  "ConversionSoftwareVersion": "v1.0.20190410  GCC6.3.0",
  "DerivedVendorReportedEchoSpacing": 0.000690012,
  "DeviceSerialNumber": "35422",
  "DwellTime": 2.6e-06,
  "EchoTime": 0.03,
  "EffectiveEchoSpacing": 0.000345006,
  "FlipAngle": 85,
  "ImageComments": "Unaliased_MB4_PE4_LB",
  "ImageOrientationPatientDICOM": [0.999782, 0.000765302, 0.0208609, 2.3029e-10, 0.999328, -0.0366612],
  "ImageType": [
    "ORIGINAL",
    "PRIMARY",
    "FMRI",
    "NONE",
    "MB",
    "ND",
    "MOSAIC"
],
  "ImagingFrequency": 123.177,
  "InPlanePhaseEncodingDirectionDICOM": "ROW",
  "InstitutionAddress": "kwanakro_599_C6F879_Seoul_KR_ZIP",
  "InstitutionName": "SNUBIC",
  "InstitutionalDepartmentName": "Department",
  "MRAcquisitionType": "2D",
  "MagneticFieldStrength": 3,
  "Manufacturer": "Siemens",
  "ManufacturersModelName": "TrioTim",
  "Modality": "MR",
  "MultibandAccelerationFactor": 4,
  "ParallelReductionFactorInPlane": 2,
  "PartialFourier": 1,
  "PatientPosition": "HFS",
  "PercentPhaseFOV": 100,
  "PhaseEncodingDirection": "i-",
  "PhaseEncodingSteps": 110,
  "PhaseResolution": 1,
  "PixelBandwidth": 1748,
  "ProcedureStepDescription": "SNU_SAVED",
  "ProtocolName": "WMGNG2_MB4_LR_SBRef",
  "PulseSequenceDetails": "%CustomerSeq%_cmrr_mbep2d_bold",
  "ReceiveCoilName": "32Ch_Head",
  "ReconMatrixPE": 110,
  "RefLinesPE": 32,
  "RepetitionTime": 1.5,
  "SAR": 0.11135,
  "ScanOptions": "FS",
  "ScanningSequence": "EP",
  "SequenceName": "epfid2d1_110",
  "SequenceVariant": "SK_SS",
  "SeriesDescription": "WMGNG2_MB4_LR_SBRef",
  "SeriesNumber": 20,
  "ShimSetting": [-4150, -29826, -2035, 896, -108, 265, 236, -55],
  "SliceThickness": 2.3,
  "SliceTiming": [0, 0.66, 1.3175, 0.4725, 1.13, 0.2825, 0.9425, 0.095, 0.755, 1.4125, 0.565, 1.225, 0.3775, 1.035, 0.19, 0.8475, 0, 0.66, 1.3175, 0.4725, 1.13, 0.2825, 0.9425, 0.095, 0.755, 1.4125, 0.565, 1.225, 0.3775, 1.035, 0.19, 0.8475, 0, 0.66, 1.3175, 0.4725, 1.13, 0.2825, 0.9425, 0.095, 0.755, 1.4125, 0.565, 1.225, 0.3775, 1.035, 0.19, 0.8475, 0, 0.66, 1.3175, 0.4725, 1.13, 0.2825, 0.9425, 0.095, 0.755, 1.4125, 0.565, 1.225, 0.3775, 1.035, 0.19, 0.8475],
  "SoftwareVersions": "syngo_MR_B17",
  "SpacingBetweenSlices": 2.3,
  "StationName": "MRC35422",
  "TaskName": "wmgng",
  "TotalReadoutTime": 0.0376057,
  "TxRefAmp": 295.487,
  "dcmmeta_affine": [
    [-2.326765537261963, 5.3594689797265e-10, 0.04801241308450699, 130.05589294433594],
    [-0.0017810655990615487, 2.3257081508636475, -0.08430246263742447, -117.74225616455078],
    [0.048549070954322815, 0.08532068878412247, 2.297952890396118, -44.13555908203125],
    [0.0, 0.0, 0.0, 1.0]
],
  "dcmmeta_reorient_transform": [
    [0.0, -1.0, 0.0, 109.0],
    [1.0, 0.0, 0.0, 0.0],
    [0.0, 0.0, 1.0, 0.0],
    [0.0, 0.0, 0.0, 1.0]
],
  "dcmmeta_shape": [110, 110, 64, 357],
  "dcmmeta_slice_dim": 2,
  "dcmmeta_version": 0.6,
  "global": {
    "const": {
      "AcquisitionMatrix": [0, 110, 110, 0],
      "AngioFlag": "N",
      "BitsAllocated": 16,
      "BitsStored": 12,
      "Columns": 880,
      "EchoNumbers": 1,
      "EchoTime": 30.0,
      "EchoTrainLength": 1,
      "FlipAngle": 85.0,
      "HighBit": 11,
      "ImageOrientationPatient": [0.99978209421966, 0.00076530166991, 0.02086092977549, 2.302897e-10, 0.99932775100335, -0.0366612339479],
      "ImagePositionPatient": [-1025.8606280848, -1031.8432817878, -20.678532710457],
      "ImageType": [
        "ORIGINAL",
        "PRIMARY",
        "FMRI",
        "NONE",
        "MB",
        "ND",
        "MOSAIC"
],
      "ImagedNucleus": "1H",
      "ImagingFrequency": 123.177292,
      "InPlanePhaseEncodingDirection": "ROW",
      "MRAcquisitionType": "2D",
      "MagneticFieldStrength": 3.0,
      "Manufacturer": "SIEMENS",
      "ManufacturerModelName": "TrioTim",
      "Modality": "MR",
      "NumberOfAverages": 1.0,
      "NumberOfPhaseEncodingSteps": 110,
      "PercentPhaseFieldOfView": 100.0,
      "PercentSampling": 100.0,
      "PerformedProcedureStepStartTime": "130149.765000",
      "PhotometricInterpretation": "MONOCHROME2",
      "PixelBandwidth": 1748.0,
      "PixelRepresentation": 0,
      "PixelSpacing": [2.3272726535797, 2.3272726535797],
      "ProtocolName": "WMGNG2_MB4_LR_SBRef",
      "ReferencedPerformedProcedureStepSequence": [
        {
          "ReferencedSOPClassUID": "1.2.840.10008.3.1.2.3.3",
          "ReferencedSOPInstanceUID": "1.3.12.2.1107.5.2.32.35422.30000020060923504445300000002"}
],
      "RepetitionTime": 1500.0,
      "Rows": 880,
      "SAR": 0.11135006487774,
      "SamplesPerPixel": 1,
      "ScanOptions": "FS",
      "ScanningSequence": "EP",
      "SequenceName": "epfid2d1_110",
      "SequenceVariant": [
        "SK",
        "SS"
],
      "SeriesDescription": "WMGNG2_MB4_LR_SBRef",
      "SeriesNumber": 20,
      "SeriesTime": "135627.921000",
      "SliceLocation": -37.065730927172,
      "SliceThickness": 2.2999999523163,
      "SmallestImagePixelValue": 0,
      "SoftwareVersions": "syngo MR B17",
      "SpacingBetweenSlices": 2.3000000039767,
      "SpecificCharacterSet": "ISO_IR 100",
      "StudyID": "1",
      "StudyTime": "130149.703000",
      "TransmitCoilName": "Body",
      "VariableFlipAngleFlag": "N",
      "WindowCenterWidthExplanation": "Algo1",
      "dBdt": 0.0},
    "slices": {}
  },
  "time": {
    "samples": {
      "AcquisitionNumber": [1, 2, 3, 4, 5, 6, 7, 8, 9, 10, 11, 12, 13, 14, 15, 16, 17, 18, 19, 20, 21, 22, 23, 24, 25, 26, 27, 28, 29, 30, 31, 32, 33, 34, 35, 36, 37, 38, 39, 40, 41, 42, 43, 44, 45, 46, 47, 48, 49, 50, 51, 52, 53, 54, 55, 56, 57, 58, 59, 60, 61, 62, 63, 64, 65, 66, 67, 68, 69, 70, 71, 72, 73, 74, 75, 76, 77, 78, 79, 80, 81, 82, 83, 84, 85, 86, 87, 88, 89, 90, 91, 92, 93, 94, 95, 96, 97, 98, 99, 100, 101, 102, 103, 104, 105, 106, 107, 108, 109, 110, 111, 112, 113, 114, 115, 116, 117, 118, 119, 120, 121, 122, 123, 124, 125, 126, 127, 128, 129, 130, 131, 132, 133, 134, 135, 136, 137, 138, 139, 140, 141, 142, 143, 144, 145, 146, 147, 148, 149, 150, 151, 152, 153, 154, 155, 156, 157, 158, 159, 160, 161, 162, 163, 164, 165, 166, 167, 168, 169, 170, 171, 172, 173, 174, 175, 176, 177, 178, 179, 180, 181, 182, 183, 184, 185, 186, 187, 188, 189, 190, 191, 192, 193, 194, 195, 196, 197, 198, 199, 200, 201, 202, 203, 204, 205, 206, 207, 208, 209, 210, 211, 212, 213, 214, 215, 216, 217, 218, 219, 220, 221, 222, 223, 224, 225, 226, 227, 228, 229, 230, 231, 232, 233, 234, 235, 236, 237, 238, 239, 240, 241, 242, 243, 244, 245, 246, 247, 248, 249, 250, 251, 252, 253, 254, 255, 256, 257, 258, 259, 260, 261, 262, 263, 264, 265, 266, 267, 268, 269, 270, 271, 272, 273, 274, 275, 276, 277, 278, 279, 280, 281, 282, 283, 284, 285, 286, 287, 288, 289, 290, 291, 292, 293, 294, 295, 296, 297, 298, 299, 300, 301, 302, 303, 304, 305, 306, 307, 308, 309, 310, 311, 312, 313, 314, 315, 316, 317, 318, 319, 320, 321, 322, 323, 324, 325, 326, 327, 328, 329, 330, 331, 332, 333, 334, 335, 336, 337, 338, 339, 340, 341, 342, 343, 344, 345, 346, 347, 348, 349, 350, 351, 352, 353, 354, 355, 356, 357],
      "AcquisitionTime": ["134800.357500", "134801.865000", "134803.370000", "134804.877500", "134806.382500", "134807.887500", "134809.395000", "134810.900000", "134812.407500", "134813.912500", "134815.420000", "134816.925000", "134818.430000", "134819.937500", "134821.442500", "134822.950000", "134824.455000", "134825.960000", "134827.467500", "134828.972500", "134830.480000", "134831.985000", "134833.490000", "134834.997500", "134836.502500", "134838.010000", "134839.515000", "134841.022500", "134842.527500", "134844.032500", "134845.540000", "134847.045000", "134848.552500", "134850.057500", "134851.562500", "134853.070000", "134854.575000", "134856.082500", "134857.587500", "134859.092500", "134900.600000", "134902.105000", "134903.612500", "134905.117500", "134906.622500", "134908.130000", "134909.635000", "134911.142500", "134912.647500", "134914.155000", "134915.660000", "134917.165000", "134918.672500", "134920.177500", "134921.685000", "134923.190000", "134924.695000", "134926.202500", "134927.707500", "134929.215000", "134930.720000", "134932.225000", "134933.732500", "134935.237500", "134936.745000", "134938.250000", "134939.755000", "134941.262500", "134942.767500", "134944.275000", "134945.780000", "134947.287500", "134948.792500", "134950.297500", "134951.805000", "134953.310000", "134954.817500", "134956.322500", "134957.827500", "134959.335000", "135000.840000", "135002.347500", "135003.852500", "135005.357500", "135006.865000", "135008.370000", "135009.877500", "135011.382500", "135012.887500", "135014.395000", "135015.900000", "135017.407500", "135018.912500", "135020.420000", "135021.925000", "135023.430000", "135024.937500", "135026.442500", "135027.950000", "135029.455000", "135030.960000", "135032.467500", "135033.972500", "135035.480000", "135036.985000", "135038.490000", "135039.997500", "135041.502500", "135043.010000", "135044.515000", "135046.022500", "135047.527500", "135049.032500", "135050.540000", "135052.045000", "135053.552500", "135055.057500", "135056.562500", "135058.070000", "135059.575000", "135101.082500", "135102.587500", "135104.092500", "135105.600000", "135107.105000", "135108.612500", "135110.117500", "135111.622500", "135113.130000", "135114.635000", "135116.142500", "135117.647500", "135119.155000", "135120.660000", "135122.165000", "135123.672500", "135125.177500", "135126.685000", "135128.190000", "135129.695000", "135131.202500", "135132.707500", "135134.215000", "135135.720000", "135137.225000", "135138.732500", "135140.237500", "135141.745000", "135143.250000", "135144.755000", "135146.262500", "135147.767500", "135149.275000", "135150.780000", "135152.287500", "135153.792500", "135155.297500", "135156.805000", "135158.310000", "135159.817500", "135201.322500", "135202.827500", "135204.335000", "135205.840000", "135207.347500", "135208.852500", "135210.357500", "135211.865000", "135213.370000", "135214.877500", "135216.382500", "135217.887500", "135219.395000", "135220.900000", "135222.407500", "135223.912500", "135225.420000", "135226.925000", "135228.430000", "135229.937500", "135231.442500", "135232.950000", "135234.455000", "135235.960000", "135237.467500", "135238.972500", "135240.480000", "135241.985000", "135243.490000", "135244.997500", "135246.502500", "135248.010000", "135249.515000", "135251.022500", "135252.527500", "135254.032500", "135255.540000", "135257.045000", "135258.552500", "135300.057500", "135301.562500", "135303.070000", "135304.575000", "135306.082500", "135307.587500", "135309.092500", "135310.600000", "135312.105000", "135313.612500", "135315.117500", "135316.622500", "135318.130000", "135319.635000", "135321.142500", "135322.647500", "135324.155000", "135325.660000", "135327.165000", "135328.672500", "135330.177500", "135331.685000", "135333.190000", "135334.695000", "135336.202500", "135337.707500", "135339.215000", "135340.720000", "135342.225000", "135343.732500", "135345.237500", "135346.745000", "135348.250000", "135349.755000", "135351.262500", "135352.767500", "135354.275000", "135355.780000", "135357.287500", "135358.792500", "135400.297500", "135401.805000", "135403.310000", "135404.817500", "135406.322500", "135407.827500", "135409.335000", "135410.840000", "135412.347500", "135413.852500", "135415.357500", "135416.865000", "135418.370000", "135419.877500", "135421.382500", "135422.887500", "135424.395000", "135425.900000", "135427.407500", "135428.912500", "135430.420000", "135431.925000", "135433.430000", "135434.937500", "135436.442500", "135437.950000", "135439.455000", "135440.960000", "135442.467500", "135443.972500", "135445.480000", "135446.985000", "135448.490000", "135449.997500", "135451.502500", "135453.010000", "135454.515000", "135456.022500", "135457.527500", "135459.032500", "135500.540000", "135502.045000", "135503.552500", "135505.057500", "135506.562500", "135508.070000", "135509.575000", "135511.082500", "135512.587500", "135514.092500", "135515.600000", "135517.105000", "135518.612500", "135520.117500", "135521.622500", "135523.130000", "135524.635000", "135526.142500", "135527.647500", "135529.155000", "135530.660000", "135532.165000", "135533.672500", "135535.177500", "135536.685000", "135538.190000", "135539.695000", "135541.202500", "135542.707500", "135544.215000", "135545.720000", "135547.225000", "135548.732500", "135550.237500", "135551.745000", "135553.250000", "135554.755000", "135556.262500", "135557.767500", "135559.275000", "135600.780000", "135602.287500", "135603.792500", "135605.297500", "135606.805000", "135608.310000", "135609.817500", "135611.322500", "135612.827500", "135614.335000", "135615.840000", "135617.347500", "135618.852500", "135620.357500", "135621.865000", "135623.370000", "135624.877500", "135626.382500", "135627.887500", "135629.395000", "135630.900000", "135632.407500", "135633.912500", "135635.420000", "135636.925000", "135638.430000", "135639.937500", "135641.442500", "135642.950000", "135644.455000", "135645.960000", "135647.467500", "135648.972500", "135650.480000", "135651.985000", "135653.490000", "135654.997500", "135656.502500"],
      "ContentTime": ["135627.921000", "135627.921000", "135627.937000", "135627.937000", "135627.937000", "135727.921000", "135727.921000", "135727.921000", "135727.921000", "135727.921000", "135727.921000", "135727.921000", "135727.921000", "135727.921000", "135727.937000", "135727.937000", "135727.937000", "135727.937000", "135727.937000", "135727.937000", "135727.937000", "135727.937000", "135727.937000", "135727.953000", "135727.953000", "135727.953000", "135727.953000", "135727.953000", "135727.953000", "135727.953000", "135727.968000", "135807.921000", "135807.921000", "135807.921000", "135807.921000", "135807.921000", "135807.921000", "135807.921000", "135807.937000", "135807.937000", "135807.953000", "135807.953000", "135807.953000", "135807.953000", "135807.953000", "135807.953000", "135807.953000", "135807.953000", "135907.921000", "135907.921000", "135907.921000", "135907.921000", "135907.921000", "135907.921000", "135907.921000", "135907.921000", "135907.937000", "135907.937000", "135907.937000", "135907.937000", "135907.937000", "135907.937000", "135907.937000", "135907.937000", "135907.937000", "135907.953000", "135907.953000", "135907.953000", "135907.953000", "135907.953000", "135907.953000", "135907.953000", "135907.953000", "135907.953000", "135907.968000", "140007.921000", "140007.921000", "140007.921000", "140007.921000", "140007.921000", "140007.921000", "140007.921000", "140007.921000", "140007.921000", "140007.937000", "140007.937000", "140007.937000", "140007.937000", "140007.937000", "140007.937000", "140007.953000", "140007.953000", "140007.953000", "140007.953000", "140007.968000", "140007.968000", "140007.968000", "140007.968000", "140007.968000", "140007.968000", "140007.968000", "140107.921000", "140107.921000", "140107.921000", "140107.921000", "140107.921000", "140107.921000", "140107.921000", "140107.921000", "140107.937000", "140107.937000", "140107.937000", "140107.937000", "140107.937000", "140107.937000", "140107.937000", "140107.937000", "140107.937000", "140107.953000", "140107.953000", "140107.953000", "140107.953000", "140107.953000", "140107.953000", "140107.953000", "140107.968000", "140207.921000", "140207.921000", "140207.921000", "140207.921000", "140207.921000", "140207.937000", "140207.937000", "140207.937000", "140207.937000", "140207.937000", "140207.937000", "140207.953000", "140207.953000", "140207.953000", "140207.953000", "140207.953000", "140207.953000", "140207.953000", "140207.968000", "140207.968000", "140207.968000", "140207.968000", "140207.968000", "140207.968000", "140207.968000", "140207.968000", "140307.921000", "140307.921000", "140307.921000", "140307.937000", "140307.937000", "140307.937000", "140307.937000", "140307.937000", "140307.937000", "140307.937000", "140307.937000", "140307.937000", "140307.953000", "140307.953000", "140307.953000", "140307.953000", "140307.953000", "140307.953000", "140307.953000", "140307.953000", "140307.968000", "140307.968000", "140307.968000", "140307.968000", "140307.968000", "140307.968000", "140407.921000", "140407.921000", "140407.921000", "140407.921000", "140407.921000", "140407.921000", "140407.921000", "140407.921000", "140407.937000", "140407.937000", "140407.937000", "140407.937000", "140407.937000", "140407.937000", "140407.937000", "140407.937000", "140407.937000", "140407.953000", "140407.953000", "140407.953000", "140407.953000", "140407.953000", "140407.953000", "140407.953000", "140407.953000", "140407.953000", "140507.921000", "140507.921000", "140507.921000", "140507.921000", "140507.921000", "140507.921000", "140507.921000", "140507.921000", "140507.937000", "140507.937000", "140507.937000", "140507.937000", "140507.937000", "140507.937000", "140507.953000", "140507.953000", "140507.953000", "140507.953000", "140507.953000", "140507.953000", "140507.968000", "140507.968000", "140507.968000", "140507.968000", "140507.968000", "140507.968000", "140607.921000", "140607.921000", "140607.921000", "140607.921000", "140607.921000", "140607.937000", "140607.937000", "140607.937000", "140607.937000", "140607.937000", "140607.937000", "140607.937000", "140607.953000", "140607.953000", "140607.953000", "140607.953000", "140607.953000", "140607.953000", "140607.953000", "140607.953000", "140607.953000", "140607.968000", "140607.968000", "140607.968000", "140607.968000", "140607.968000", "140707.921000", "140707.921000", "140707.921000", "140707.921000", "140707.921000", "140707.921000", "140707.921000", "140707.921000", "140707.937000", "140707.937000", "140707.937000", "140707.937000", "140707.937000", "140707.937000", "140707.937000", "140707.937000", "140707.937000", "140707.953000", "140707.953000", "140707.953000", "140707.953000", "140707.953000", "140707.953000", "140707.968000", "140707.968000", "140707.968000", "140807.921000", "140807.921000", "140807.921000", "140807.921000", "140807.921000", "140807.937000", "140807.937000", "140807.937000", "140807.937000", "140807.937000", "140807.937000", "140807.937000", "140807.937000", "140807.937000", "140807.953000", "140807.953000", "140807.953000", "140807.953000", "140807.953000", "140807.953000", "140807.953000", "140807.968000", "140807.968000", "140807.968000", "140807.968000", "140807.968000", "140907.921000", "140907.921000", "140907.921000", "140907.937000", "140907.937000", "140907.937000", "140907.937000", "140907.937000", "140907.937000", "140907.937000", "140907.953000", "140907.953000", "140907.953000", "140907.953000", "140907.953000", "140907.953000", "140907.953000", "140907.953000", "140907.953000", "140907.968000", "140907.968000", "140907.968000", "140907.968000", "140907.968000", "140907.968000", "140907.968000", "140959.406000", "140959.406000", "140959.421000", "140959.437000", "140959.437000", "140959.437000", "140959.437000", "140959.437000", "140959.437000", "140959.437000", "140959.437000", "140959.437000", "140959.453000", "140959.453000", "140959.453000", "140959.453000", "140959.453000", "140959.453000", "140959.453000", "140959.453000", "140959.468000", "140959.468000", "140959.468000"],
      "DataSetTrailingPadding": [
        "\u0000\u0000\u0000\u0000\u0000\u0000\u0000\u0000\u0000\u0000\u0000\u0000\u0000\u0000\u0000\u0000\u0000\u0000\u0000\u0000\u0000\u0000\u0000\u0000\u0000\u0000\u0000\u0000\u0000\u0000\u0000\u0000",
        "\u0000\u0000\u0000\u0000\u0000\u0000\u0000\u0000\u0000\u0000\u0000\u0000\u0000\u0000\u0000\u0000\u0000\u0000\u0000\u0000\u0000\u0000\u0000\u0000\u0000\u0000\u0000\u0000\u0000\u0000\u0000\u0000",
        "\u0000\u0000\u0000\u0000\u0000\u0000\u0000\u0000\u0000\u0000\u0000\u0000\u0000\u0000\u0000\u0000\u0000\u0000\u0000\u0000\u0000\u0000\u0000\u0000\u0000\u0000\u0000\u0000\u0000\u0000",
        "\u0000\u0000\u0000\u0000\u0000\u0000\u0000\u0000\u0000\u0000\u0000\u0000\u0000\u0000\u0000\u0000\u0000\u0000\u0000\u0000\u0000\u0000\u0000\u0000\u0000\u0000\u0000\u0000\u0000\u0000",
        "\u0000\u0000\u0000\u0000\u0000\u0000\u0000\u0000\u0000\u0000\u0000\u0000\u0000\u0000\u0000\u0000\u0000\u0000\u0000\u0000\u0000\u0000\u0000\u0000\u0000\u0000\u0000\u0000\u0000\u0000\u0000\u0000",
        "\u0000\u0000\u0000\u0000\u0000\u0000\u0000\u0000\u0000\u0000\u0000\u0000\u0000\u0000\u0000\u0000\u0000\u0000\u0000\u0000\u0000\u0000\u0000\u0000\u0000\u0000\u0000\u0000\u0000\u0000\u0000\u0000",
        "\u0000\u0000\u0000\u0000\u0000\u0000\u0000\u0000\u0000\u0000\u0000\u0000\u0000\u0000\u0000\u0000\u0000\u0000\u0000\u0000\u0000\u0000\u0000\u0000\u0000\u0000\u0000\u0000\u0000\u0000",
        "\u0000\u0000\u0000\u0000\u0000\u0000\u0000\u0000\u0000\u0000\u0000\u0000\u0000\u0000\u0000\u0000\u0000\u0000\u0000\u0000\u0000\u0000\u0000\u0000\u0000\u0000\u0000\u0000\u0000\u0000",
        "\u0000\u0000\u0000\u0000\u0000\u0000\u0000\u0000\u0000\u0000\u0000\u0000\u0000\u0000\u0000\u0000\u0000\u0000\u0000\u0000\u0000\u0000\u0000\u0000\u0000\u0000\u0000\u0000\u0000\u0000",
        "\u0000\u0000\u0000\u0000\u0000\u0000\u0000\u0000\u0000\u0000\u0000\u0000\u0000\u0000\u0000\u0000\u0000\u0000\u0000\u0000\u0000\u0000\u0000\u0000\u0000\u0000\u0000\u0000\u0000\u0000\u0000\u0000",
        "\u0000\u0000\u0000\u0000\u0000\u0000\u0000\u0000\u0000\u0000\u0000\u0000\u0000\u0000\u0000\u0000\u0000\u0000\u0000\u0000\u0000\u0000\u0000\u0000\u0000\u0000\u0000\u0000\u0000\u0000\u0000\u0000",
        "\u0000\u0000\u0000\u0000\u0000\u0000\u0000\u0000\u0000\u0000\u0000\u0000\u0000\u0000\u0000\u0000\u0000\u0000\u0000\u0000\u0000\u0000\u0000\u0000\u0000\u0000\u0000\u0000\u0000\u0000",
        "\u0000\u0000\u0000\u0000\u0000\u0000\u0000\u0000\u0000\u0000\u0000\u0000\u0000\u0000\u0000\u0000\u0000\u0000\u0000\u0000\u0000\u0000\u0000\u0000\u0000\u0000\u0000\u0000\u0000\u0000",
        "\u0000\u0000\u0000\u0000\u0000\u0000\u0000\u0000\u0000\u0000\u0000\u0000\u0000\u0000\u0000\u0000\u0000\u0000\u0000\u0000\u0000\u0000\u0000\u0000\u0000\u0000\u0000\u0000\u0000\u0000",
        "\u0000\u0000\u0000\u0000\u0000\u0000\u0000\u0000\u0000\u0000\u0000\u0000\u0000\u0000\u0000\u0000\u0000\u0000\u0000\u0000\u0000\u0000\u0000\u0000\u0000\u0000\u0000\u0000\u0000\u0000\u0000\u0000",
        "\u0000\u0000\u0000\u0000\u0000\u0000\u0000\u0000\u0000\u0000\u0000\u0000\u0000\u0000\u0000\u0000\u0000\u0000\u0000\u0000\u0000\u0000\u0000\u0000\u0000\u0000\u0000\u0000\u0000\u0000\u0000\u0000",
        "\u0000\u0000\u0000\u0000\u0000\u0000\u0000\u0000\u0000\u0000\u0000\u0000\u0000\u0000\u0000\u0000\u0000\u0000\u0000\u0000\u0000\u0000\u0000\u0000\u0000\u0000\u0000\u0000\u0000\u0000",
        "\u0000\u0000\u0000\u0000\u0000\u0000\u0000\u0000\u0000\u0000\u0000\u0000\u0000\u0000\u0000\u0000\u0000\u0000\u0000\u0000\u0000\u0000\u0000\u0000\u0000\u0000\u0000\u0000\u0000\u0000",
        "\u0000\u0000\u0000\u0000\u0000\u0000\u0000\u0000\u0000\u0000\u0000\u0000\u0000\u0000\u0000\u0000\u0000\u0000\u0000\u0000\u0000\u0000\u0000\u0000\u0000\u0000\u0000\u0000\u0000\u0000",
        "\u0000\u0000\u0000\u0000\u0000\u0000\u0000\u0000\u0000\u0000\u0000\u0000\u0000\u0000\u0000\u0000\u0000\u0000\u0000\u0000\u0000\u0000\u0000\u0000\u0000\u0000\u0000\u0000\u0000\u0000\u0000\u0000",
        "\u0000\u0000\u0000\u0000\u0000\u0000\u0000\u0000\u0000\u0000\u0000\u0000\u0000\u0000\u0000\u0000\u0000\u0000\u0000\u0000\u0000\u0000\u0000\u0000\u0000\u0000\u0000\u0000\u0000\u0000\u0000\u0000",
        "\u0000\u0000\u0000\u0000\u0000\u0000\u0000\u0000\u0000\u0000\u0000\u0000\u0000\u0000\u0000\u0000\u0000\u0000\u0000\u0000\u0000\u0000\u0000\u0000\u0000\u0000\u0000\u0000\u0000\u0000",
        "\u0000\u0000\u0000\u0000\u0000\u0000\u0000\u0000\u0000\u0000\u0000\u0000\u0000\u0000\u0000\u0000\u0000\u0000\u0000\u0000\u0000\u0000\u0000\u0000\u0000\u0000\u0000\u0000\u0000\u0000",
        "\u0000\u0000\u0000\u0000\u0000\u0000\u0000\u0000\u0000\u0000\u0000\u0000\u0000\u0000\u0000\u0000\u0000\u0000\u0000\u0000\u0000\u0000\u0000\u0000\u0000\u0000\u0000\u0000\u0000\u0000",
        "\u0000\u0000\u0000\u0000\u0000\u0000\u0000\u0000\u0000\u0000\u0000\u0000\u0000\u0000\u0000\u0000\u0000\u0000\u0000\u0000\u0000\u0000\u0000\u0000\u0000\u0000\u0000\u0000\u0000\u0000\u0000\u0000",
        "\u0000\u0000\u0000\u0000\u0000\u0000\u0000\u0000\u0000\u0000\u0000\u0000\u0000\u0000\u0000\u0000\u0000\u0000\u0000\u0000\u0000\u0000\u0000\u0000\u0000\u0000\u0000\u0000\u0000\u0000\u0000\u0000",
        "\u0000\u0000\u0000\u0000\u0000\u0000\u0000\u0000\u0000\u0000\u0000\u0000\u0000\u0000\u0000\u0000\u0000\u0000\u0000\u0000\u0000\u0000\u0000\u0000\u0000\u0000\u0000\u0000\u0000\u0000",
        "\u0000\u0000\u0000\u0000\u0000\u0000\u0000\u0000\u0000\u0000\u0000\u0000\u0000\u0000\u0000\u0000\u0000\u0000\u0000\u0000\u0000\u0000\u0000\u0000\u0000\u0000\u0000\u0000\u0000\u0000\u0000\u0000",
        "\u0000\u0000\u0000\u0000\u0000\u0000\u0000\u0000\u0000\u0000\u0000\u0000\u0000\u0000\u0000\u0000\u0000\u0000\u0000\u0000\u0000\u0000\u0000\u0000\u0000\u0000\u0000\u0000\u0000\u0000\u0000\u0000",
        "\u0000\u0000\u0000\u0000\u0000\u0000\u0000\u0000\u0000\u0000\u0000\u0000\u0000\u0000\u0000\u0000\u0000\u0000\u0000\u0000\u0000\u0000\u0000\u0000\u0000\u0000\u0000\u0000\u0000\u0000\u0000\u0000",
        "\u0000\u0000\u0000\u0000\u0000\u0000\u0000\u0000\u0000\u0000\u0000\u0000\u0000\u0000\u0000\u0000\u0000\u0000\u0000\u0000\u0000\u0000\u0000\u0000\u0000\u0000\u0000\u0000\u0000\u0000\u0000\u0000",
        "\u0000\u0000\u0000\u0000\u0000\u0000\u0000\u0000\u0000\u0000\u0000\u0000\u0000\u0000\u0000\u0000\u0000\u0000\u0000\u0000\u0000\u0000\u0000\u0000\u0000\u0000\u0000\u0000\u0000\u0000",
        "\u0000\u0000\u0000\u0000\u0000\u0000\u0000\u0000\u0000\u0000\u0000\u0000\u0000\u0000\u0000\u0000\u0000\u0000\u0000\u0000\u0000\u0000\u0000\u0000\u0000\u0000\u0000\u0000\u0000\u0000",
        "\u0000\u0000\u0000\u0000\u0000\u0000\u0000\u0000\u0000\u0000\u0000\u0000\u0000\u0000\u0000\u0000\u0000\u0000\u0000\u0000\u0000\u0000\u0000\u0000\u0000\u0000\u0000\u0000\u0000\u0000\u0000\u0000",
        "\u0000\u0000\u0000\u0000\u0000\u0000\u0000\u0000\u0000\u0000\u0000\u0000\u0000\u0000\u0000\u0000\u0000\u0000\u0000\u0000\u0000\u0000\u0000\u0000\u0000\u0000\u0000\u0000\u0000\u0000\u0000\u0000",
        "\u0000\u0000\u0000\u0000\u0000\u0000\u0000\u0000\u0000\u0000\u0000\u0000\u0000\u0000\u0000\u0000\u0000\u0000\u0000\u0000\u0000\u0000\u0000\u0000\u0000\u0000\u0000\u0000\u0000\u0000\u0000\u0000",
        "\u0000\u0000\u0000\u0000\u0000\u0000\u0000\u0000\u0000\u0000\u0000\u0000\u0000\u0000\u0000\u0000\u0000\u0000\u0000\u0000\u0000\u0000\u0000\u0000\u0000\u0000\u0000\u0000\u0000\u0000",
        "\u0000\u0000\u0000\u0000\u0000\u0000\u0000\u0000\u0000\u0000\u0000\u0000\u0000\u0000\u0000\u0000\u0000\u0000\u0000\u0000\u0000\u0000\u0000\u0000\u0000\u0000\u0000\u0000\u0000\u0000",
        "\u0000\u0000\u0000\u0000\u0000\u0000\u0000\u0000\u0000\u0000\u0000\u0000\u0000\u0000\u0000\u0000\u0000\u0000\u0000\u0000\u0000\u0000\u0000\u0000\u0000\u0000\u0000\u0000\u0000\u0000\u0000\u0000",
        "\u0000\u0000\u0000\u0000\u0000\u0000\u0000\u0000\u0000\u0000\u0000\u0000\u0000\u0000\u0000\u0000\u0000\u0000\u0000\u0000\u0000\u0000\u0000\u0000\u0000\u0000\u0000\u0000\u0000\u0000\u0000\u0000\u0000\u0000",
        "\u0000\u0000\u0000\u0000\u0000\u0000\u0000\u0000\u0000\u0000\u0000\u0000\u0000\u0000\u0000\u0000\u0000\u0000\u0000\u0000\u0000\u0000\u0000\u0000\u0000\u0000\u0000\u0000\u0000\u0000\u0000\u0000",
        "\u0000\u0000\u0000\u0000\u0000\u0000\u0000\u0000\u0000\u0000\u0000\u0000\u0000\u0000\u0000\u0000\u0000\u0000\u0000\u0000\u0000\u0000\u0000\u0000\u0000\u0000\u0000\u0000\u0000\u0000",
        "\u0000\u0000\u0000\u0000\u0000\u0000\u0000\u0000\u0000\u0000\u0000\u0000\u0000\u0000\u0000\u0000\u0000\u0000\u0000\u0000\u0000\u0000\u0000\u0000\u0000\u0000\u0000\u0000\u0000\u0000",
        "\u0000\u0000\u0000\u0000\u0000\u0000\u0000\u0000\u0000\u0000\u0000\u0000\u0000\u0000\u0000\u0000\u0000\u0000\u0000\u0000\u0000\u0000\u0000\u0000\u0000\u0000\u0000\u0000\u0000\u0000\u0000\u0000",
        "\u0000\u0000\u0000\u0000\u0000\u0000\u0000\u0000\u0000\u0000\u0000\u0000\u0000\u0000\u0000\u0000\u0000\u0000\u0000\u0000\u0000\u0000\u0000\u0000\u0000\u0000\u0000\u0000\u0000\u0000\u0000\u0000",
        "\u0000\u0000\u0000\u0000\u0000\u0000\u0000\u0000\u0000\u0000\u0000\u0000\u0000\u0000\u0000\u0000\u0000\u0000\u0000\u0000\u0000\u0000\u0000\u0000\u0000\u0000\u0000\u0000\u0000\u0000\u0000\u0000",
        "\u0000\u0000\u0000\u0000\u0000\u0000\u0000\u0000\u0000\u0000\u0000\u0000\u0000\u0000\u0000\u0000\u0000\u0000\u0000\u0000\u0000\u0000\u0000\u0000\u0000\u0000\u0000\u0000\u0000\u0000",
        "\u0000\u0000\u0000\u0000\u0000\u0000\u0000\u0000\u0000\u0000\u0000\u0000\u0000\u0000\u0000\u0000\u0000\u0000\u0000\u0000\u0000\u0000\u0000\u0000\u0000\u0000\u0000\u0000\u0000\u0000",
        "\u0000\u0000\u0000\u0000\u0000\u0000\u0000\u0000\u0000\u0000\u0000\u0000\u0000\u0000\u0000\u0000\u0000\u0000\u0000\u0000\u0000\u0000\u0000\u0000\u0000\u0000\u0000\u0000\u0000\u0000\u0000\u0000",
        "\u0000\u0000\u0000\u0000\u0000\u0000\u0000\u0000\u0000\u0000\u0000\u0000\u0000\u0000\u0000\u0000\u0000\u0000\u0000\u0000\u0000\u0000\u0000\u0000\u0000\u0000\u0000\u0000\u0000\u0000\u0000\u0000\u0000\u0000",
        "\u0000\u0000\u0000\u0000\u0000\u0000\u0000\u0000\u0000\u0000\u0000\u0000\u0000\u0000\u0000\u0000\u0000\u0000\u0000\u0000\u0000\u0000\u0000\u0000\u0000\u0000\u0000\u0000\u0000\u0000",
        "\u0000\u0000\u0000\u0000\u0000\u0000\u0000\u0000\u0000\u0000\u0000\u0000\u0000\u0000\u0000\u0000\u0000\u0000\u0000\u0000\u0000\u0000\u0000\u0000\u0000\u0000\u0000\u0000\u0000\u0000",
