{
  "AcquisitionMatrixPE": 110,
  "AcquisitionNumber": 1,
  "AcquisitionTime": "13:36:50.902500",
  "BandwidthPerPixelPhaseEncode": 26.35,
  "BaseResolution": 110,
  "CoilString": "C:HEA;HEP",
  "ConversionSoftware": "dcm2niix",
  "ConversionSoftwareVersion": "v1.0.20190410  GCC6.3.0",
  "DerivedVendorReportedEchoSpacing": 0.000690012,
  "DeviceSerialNumber": "35422",
  "DwellTime": 2.6e-06,
  "EchoTime": 0.03,
  "EffectiveEchoSpacing": 0.000345006,
  "FlipAngle": 85,
  "ImageComments": "Unaliased_MB4_PE4_LB",
  "ImageOrientationPatientDICOM": [0.999782, 0.000765302, 0.0208609, 2.3029e-10, 0.999328, -0.0366612],
  "ImageType": [
    "ORIGINAL",
    "PRIMARY",
    "FMRI",
    "NONE",
    "MB",
    "ND",
    "MOSAIC"
],
  "ImagingFrequency": 123.177,
  "InPlanePhaseEncodingDirectionDICOM": "ROW",
  "InstitutionAddress": "kwanakro_599_C6F879_Seoul_KR_ZIP",
  "InstitutionName": "SNUBIC",
  "InstitutionalDepartmentName": "Department",
  "MRAcquisitionType": "2D",
  "MagneticFieldStrength": 3,
  "Manufacturer": "Siemens",
  "ManufacturersModelName": "TrioTim",
  "Modality": "MR",
  "MultibandAccelerationFactor": 4,
  "ParallelReductionFactorInPlane": 2,
  "PartialFourier": 1,
  "PatientPosition": "HFS",
  "PercentPhaseFOV": 100,
  "PhaseEncodingDirection": "i-",
  "PhaseEncodingSteps": 110,
  "PhaseResolution": 1,
  "PixelBandwidth": 1748,
  "ProcedureStepDescription": "SNU_SAVED",
  "ProtocolName": "WMGNG1_MB4_LR_SBRef",
  "PulseSequenceDetails": "%CustomerSeq%_cmrr_mbep2d_bold",
  "ReceiveCoilName": "32Ch_Head",
  "ReconMatrixPE": 110,
  "RefLinesPE": 32,
  "RepetitionTime": 1.5,
  "SAR": 0.110618,
  "ScanOptions": "FS",
  "ScanningSequence": "EP",
  "SequenceName": "epfid2d1_110",
  "SequenceVariant": "SK_SS",
  "SeriesDescription": "WMGNG1_MB4_LR_SBRef",
  "SeriesNumber": 15,
  "ShimSetting": [-4150, -29826, -2035, 896, -108, 265, 236, -55],
  "SliceThickness": 2.3,
  "SliceTiming": [0, 0.6575, 1.3175, 0.47, 1.13, 0.2825, 0.94, 0.095, 0.7525, 1.4125, 0.565, 1.2225, 0.3775, 1.035, 0.1875, 0.8475, 0, 0.6575, 1.3175, 0.47, 1.13, 0.2825, 0.94, 0.095, 0.7525, 1.4125, 0.565, 1.2225, 0.3775, 1.035, 0.1875, 0.8475, 0, 0.6575, 1.3175, 0.47, 1.13, 0.2825, 0.94, 0.095, 0.7525, 1.4125, 0.565, 1.2225, 0.3775, 1.035, 0.1875, 0.8475, 0, 0.6575, 1.3175, 0.47, 1.13, 0.2825, 0.94, 0.095, 0.7525, 1.4125, 0.565, 1.2225, 0.3775, 1.035, 0.1875, 0.8475],
  "SoftwareVersions": "syngo_MR_B17",
  "SpacingBetweenSlices": 2.3,
  "StationName": "MRC35422",
  "TaskName": "wmgng",
  "TotalReadoutTime": 0.0376057,
  "TxRefAmp": 295.487,
  "dcmmeta_affine": [
    [-2.326765537261963, 5.3594689797265e-10, 0.04801241308450699, 130.05589294433594],
    [-0.0017810655990615487, 2.3257081508636475, -0.08430246263742447, -117.74225616455078],
    [0.048549070954322815, 0.08532068878412247, 2.297952890396118, -44.13555908203125],
    [0.0, 0.0, 0.0, 1.0]
],
  "dcmmeta_reorient_transform": [
    [0.0, -1.0, 0.0, 109.0],
    [1.0, 0.0, 0.0, 0.0],
    [0.0, 0.0, 1.0, 0.0],
    [0.0, 0.0, 0.0, 1.0]
],
  "dcmmeta_shape": [110, 110, 64, 357],
  "dcmmeta_slice_dim": 2,
  "dcmmeta_version": 0.6,
  "global": {
    "const": {
      "AcquisitionMatrix": [0, 110, 110, 0],
      "AngioFlag": "N",
      "BitsAllocated": 16,
      "BitsStored": 12,
      "Columns": 880,
      "EchoNumbers": 1,
      "EchoTime": 30.0,
      "EchoTrainLength": 1,
      "FlipAngle": 85.0,
      "HighBit": 11,
      "ImageOrientationPatient": [0.99978209421966, 0.00076530166991, 0.02086092977549, 2.302897e-10, 0.99932775100335, -0.0366612339479],
      "ImagePositionPatient": [-1025.8606280848, -1031.8432817878, -20.678532710457],
      "ImageType": [
        "ORIGINAL",
        "PRIMARY",
        "FMRI",
        "NONE",
        "MB",
        "ND",
        "MOSAIC"
],
      "ImagedNucleus": "1H",
      "ImagingFrequency": 123.177286,
      "InPlanePhaseEncodingDirection": "ROW",
      "MRAcquisitionType": "2D",
      "MagneticFieldStrength": 3.0,
      "Manufacturer": "SIEMENS",
      "ManufacturerModelName": "TrioTim",
      "Modality": "MR",
      "NumberOfAverages": 1.0,
      "NumberOfPhaseEncodingSteps": 110,
      "PercentPhaseFieldOfView": 100.0,
      "PercentSampling": 100.0,
      "PerformedProcedureStepStartTime": "130149.765000",
      "PhotometricInterpretation": "MONOCHROME2",
      "PixelBandwidth": 1748.0,
      "PixelRepresentation": 0,
      "PixelSpacing": [2.3272726535797, 2.3272726535797],
      "ProtocolName": "WMGNG1_MB4_LR_SBRef",
      "ReferencedPerformedProcedureStepSequence": [
        {
          "ReferencedSOPClassUID": "1.2.840.10008.3.1.2.3.3",
          "ReferencedSOPInstanceUID": "1.3.12.2.1107.5.2.32.35422.30000020060923504445300000002"}
],
      "RepetitionTime": 1500.0,
      "Rows": 880,
      "SAR": 0.11061841217193,
      "SamplesPerPixel": 1,
      "ScanOptions": "FS",
      "ScanningSequence": "EP",
      "SequenceName": "epfid2d1_110",
      "SequenceVariant": [
        "SK",
        "SS"
],
      "SeriesDescription": "WMGNG1_MB4_LR_SBRef",
      "SeriesNumber": 15,
      "SeriesTime": "134206.187000",
      "SliceLocation": -37.065730927172,
      "SliceThickness": 2.2999999523163,
      "SmallestImagePixelValue": 0,
      "SoftwareVersions": "syngo MR B17",
      "SpacingBetweenSlices": 2.3000000039767,
      "SpecificCharacterSet": "ISO_IR 100",
      "StudyID": "1",
      "StudyTime": "130149.703000",
      "TransmitCoilName": "Body",
      "VariableFlipAngleFlag": "N",
      "WindowCenterWidthExplanation": "Algo1",
      "dBdt": 0.0},
    "slices": {}
  },
  "time": {
    "samples": {
      "AcquisitionNumber": [1, 2, 3, 4, 5, 6, 7, 8, 9, 10, 11, 12, 13, 14, 15, 16, 17, 18, 19, 20, 21, 22, 23, 24, 25, 26, 27, 28, 29, 30, 31, 32, 33, 34, 35, 36, 37, 38, 39, 40, 41, 42, 43, 44, 45, 46, 47, 48, 49, 50, 51, 52, 53, 54, 55, 56, 57, 58, 59, 60, 61, 62, 63, 64, 65, 66, 67, 68, 69, 70, 71, 72, 73, 74, 75, 76, 77, 78, 79, 80, 81, 82, 83, 84, 85, 86, 87, 88, 89, 90, 91, 92, 93, 94, 95, 96, 97, 98, 99, 100, 101, 102, 103, 104, 105, 106, 107, 108, 109, 110, 111, 112, 113, 114, 115, 116, 117, 118, 119, 120, 121, 122, 123, 124, 125, 126, 127, 128, 129, 130, 131, 132, 133, 134, 135, 136, 137, 138, 139, 140, 141, 142, 143, 144, 145, 146, 147, 148, 149, 150, 151, 152, 153, 154, 155, 156, 157, 158, 159, 160, 161, 162, 163, 164, 165, 166, 167, 168, 169, 170, 171, 172, 173, 174, 175, 176, 177, 178, 179, 180, 181, 182, 183, 184, 185, 186, 187, 188, 189, 190, 191, 192, 193, 194, 195, 196, 197, 198, 199, 200, 201, 202, 203, 204, 205, 206, 207, 208, 209, 210, 211, 212, 213, 214, 215, 216, 217, 218, 219, 220, 221, 222, 223, 224, 225, 226, 227, 228, 229, 230, 231, 232, 233, 234, 235, 236, 237, 238, 239, 240, 241, 242, 243, 244, 245, 246, 247, 248, 249, 250, 251, 252, 253, 254, 255, 256, 257, 258, 259, 260, 261, 262, 263, 264, 265, 266, 267, 268, 269, 270, 271, 272, 273, 274, 275, 276, 277, 278, 279, 280, 281, 282, 283, 284, 285, 286, 287, 288, 289, 290, 291, 292, 293, 294, 295, 296, 297, 298, 299, 300, 301, 302, 303, 304, 305, 306, 307, 308, 309, 310, 311, 312, 313, 314, 315, 316, 317, 318, 319, 320, 321, 322, 323, 324, 325, 326, 327, 328, 329, 330, 331, 332, 333, 334, 335, 336, 337, 338, 339, 340, 341, 342, 343, 344, 345, 346, 347, 348, 349, 350, 351, 352, 353, 354, 355, 356, 357],
      "AcquisitionTime": ["133650.902500", "133652.407500", "133653.915000", "133655.420000", "133656.927500", "133658.432500", "133659.937500", "133701.445000", "133702.950000", "133704.457500", "133705.962500", "133707.467500", "133708.975000", "133710.480000", "133711.987500", "133713.492500", "133715.000000", "133716.505000", "133718.010000", "133719.517500", "133721.022500", "133722.530000", "133724.035000", "133725.540000", "133727.047500", "133728.552500", "133730.060000", "133731.565000", "133733.070000", "133734.577500", "133736.082500", "133737.590000", "133739.095000", "133740.600000", "133742.107500", "133743.612500", "133745.120000", "133746.625000", "133748.132500", "133749.637500", "133751.142500", "133752.650000", "133754.155000", "133755.662500", "133757.167500", "133758.672500", "133800.180000", "133801.685000", "133803.192500", "133804.697500", "133806.202500", "133807.710000", "133809.215000", "133810.722500", "133812.227500", "133813.732500", "133815.240000", "133816.745000", "133818.252500", "133819.757500", "133821.265000", "133822.770000", "133824.275000", "133825.782500", "133827.287500", "133828.795000", "133830.300000", "133831.805000", "133833.312500", "133834.817500", "133836.325000", "133837.830000", "133839.335000", "133840.842500", "133842.347500", "133843.855000", "133845.360000", "133846.865000", "133848.372500", "133849.877500", "133851.385000", "133852.890000", "133854.397500", "133855.902500", "133857.407500", "133858.915000", "133900.420000", "133901.927500", "133903.432500", "133904.937500", "133906.445000", "133907.950000", "133909.457500", "133910.962500", "133912.467500", "133913.975000", "133915.480000", "133916.987500", "133918.492500", "133920.000000", "133921.505000", "133923.010000", "133924.517500", "133926.022500", "133927.530000", "133929.035000", "133930.540000", "133932.047500", "133933.552500", "133935.060000", "133936.565000", "133938.070000", "133939.577500", "133941.082500", "133942.590000", "133944.095000", "133945.600000", "133947.107500", "133948.612500", "133950.120000", "133951.625000", "133953.132500", "133954.637500", "133956.142500", "133957.650000", "133959.155000", "134000.662500", "134002.167500", "134003.672500", "134005.180000", "134006.685000", "134008.192500", "134009.697500", "134011.202500", "134012.710000", "134014.215000", "134015.722500", "134017.227500", "134018.732500", "134020.240000", "134021.745000", "134023.252500", "134024.757500", "134026.265000", "134027.770000", "134029.275000", "134030.782500", "134032.287500", "134033.795000", "134035.300000", "134036.805000", "134038.312500", "134039.817500", "134041.325000", "134042.830000", "134044.335000", "134045.842500", "134047.347500", "134048.855000", "134050.360000", "134051.865000", "134053.372500", "134054.877500", "134056.385000", "134057.890000", "134059.397500", "134100.902500", "134102.407500", "134103.915000", "134105.420000", "134106.927500", "134108.432500", "134109.937500", "134111.445000", "134112.950000", "134114.457500", "134115.962500", "134117.467500", "134118.975000", "134120.480000", "134121.987500", "134123.492500", "134125.000000", "134126.505000", "134128.010000", "134129.517500", "134131.022500", "134132.530000", "134134.035000", "134135.540000", "134137.047500", "134138.552500", "134140.060000", "134141.565000", "134143.070000", "134144.577500", "134146.082500", "134147.590000", "134149.095000", "134150.600000", "134152.107500", "134153.612500", "134155.120000", "134156.625000", "134158.132500", "134159.637500", "134201.142500", "134202.650000", "134204.155000", "134205.662500", "134207.167500", "134208.672500", "134210.180000", "134211.685000", "134213.192500", "134214.697500", "134216.202500", "134217.710000", "134219.215000", "134220.722500", "134222.227500", "134223.732500", "134225.240000", "134226.745000", "134228.252500", "134229.757500", "134231.265000", "134232.770000", "134234.275000", "134235.782500", "134237.287500", "134238.795000", "134240.300000", "134241.805000", "134243.312500", "134244.817500", "134246.325000", "134247.830000", "134249.335000", "134250.842500", "134252.347500", "134253.855000", "134255.360000", "134256.865000", "134258.372500", "134259.877500", "134301.385000", "134302.890000", "134304.397500", "134305.902500", "134307.407500", "134308.915000", "134310.420000", "134311.927500", "134313.432500", "134314.937500", "134316.445000", "134317.950000", "134319.457500", "134320.962500", "134322.467500", "134323.975000", "134325.480000", "134326.987500", "134328.492500", "134330.000000", "134331.505000", "134333.010000", "134334.517500", "134336.022500", "134337.530000", "134339.035000", "134340.540000", "134342.047500", "134343.552500", "134345.060000", "134346.565000", "134348.070000", "134349.577500", "134351.082500", "134352.590000", "134354.095000", "134355.600000", "134357.107500", "134358.612500", "134400.120000", "134401.625000", "134403.132500", "134404.637500", "134406.142500", "134407.650000", "134409.155000", "134410.662500", "134412.167500", "134413.672500", "134415.180000", "134416.685000", "134418.192500", "134419.697500", "134421.202500", "134422.710000", "134424.215000", "134425.722500", "134427.227500", "134428.732500", "134430.240000", "134431.745000", "134433.252500", "134434.757500", "134436.265000", "134437.770000", "134439.275000", "134440.782500", "134442.287500", "134443.795000", "134445.300000", "134446.805000", "134448.312500", "134449.817500", "134451.325000", "134452.830000", "134454.335000", "134455.842500", "134457.347500", "134458.855000", "134500.360000", "134501.865000", "134503.372500", "134504.877500", "134506.385000", "134507.890000", "134509.397500", "134510.902500", "134512.407500", "134513.915000", "134515.420000", "134516.927500", "134518.432500", "134519.937500", "134521.445000", "134522.950000", "134524.457500", "134525.962500", "134527.467500", "134528.975000", "134530.480000", "134531.987500", "134533.492500", "134535.000000", "134536.505000", "134538.010000", "134539.517500", "134541.022500", "134542.530000", "134544.035000", "134545.540000", "134547.047500"],
      "ContentTime": ["134206.187000", "134206.187000", "134306.187000", "134306.187000", "134306.187000", "134306.187000", "134306.203000", "134306.203000", "134306.203000", "134306.203000", "134306.203000", "134306.203000", "134306.203000", "134306.203000", "134306.203000", "134306.218000", "134306.218000", "134306.218000", "134306.218000", "134306.218000", "134306.218000", "134306.218000", "134306.218000", "134306.234000", "134306.234000", "134306.234000", "134306.234000", "134306.234000", "134306.234000", "134406.187000", "134406.187000", "134406.187000", "134406.187000", "134406.187000", "134406.187000", "134406.187000", "134406.187000", "134406.203000", "134406.203000", "134406.203000", "134406.203000", "134406.203000", "134406.203000", "134406.203000", "134406.203000", "134406.203000", "134406.218000", "134406.218000", "134406.218000", "134406.218000", "134406.218000", "134406.218000", "134406.218000", "134406.218000", "134406.218000", "134506.187000", "134506.187000", "134506.187000", "134506.187000", "134506.187000", "134506.187000", "134506.187000", "134506.187000", "134506.187000", "134506.203000", "134506.203000", "134506.203000", "134506.203000", "134506.203000", "134506.203000", "134506.203000", "134506.203000", "134506.218000", "134506.218000", "134506.218000", "134506.218000", "134506.218000", "134506.218000", "134506.218000", "134506.218000", "134506.218000", "134606.187000", "134606.187000", "134606.187000", "134606.187000", "134606.187000", "134606.187000", "134606.187000", "134606.187000", "134606.203000", "134606.203000", "134606.203000", "134606.203000", "134606.203000", "134606.203000", "134606.203000", "134606.203000", "134606.203000", "134606.218000", "134606.218000", "134606.218000", "134606.218000", "134606.218000", "134606.218000", "134606.218000", "134606.218000", "134606.218000", "134706.187000", "134706.187000", "134706.187000", "134706.187000", "134706.187000", "134706.187000", "134706.187000", "134706.187000", "134706.203000", "134706.203000", "134706.203000", "134706.203000", "134706.203000", "134706.203000", "134706.218000", "134706.218000", "134706.218000", "134706.218000", "134706.218000", "134706.218000", "134706.218000", "134706.218000", "134706.234000", "134706.234000", "134706.234000", "134706.234000", "134806.187000", "134806.187000", "134806.187000", "134806.187000", "134806.187000", "134806.187000", "134806.203000", "134806.203000", "134806.203000", "134806.203000", "134806.203000", "134806.218000", "134806.218000", "134806.218000", "134806.218000", "134806.218000", "134806.218000", "134806.218000", "134806.218000", "134806.234000", "134806.234000", "134806.234000", "134806.234000", "134806.234000", "134806.234000", "134806.234000", "134906.187000", "134906.187000", "134906.187000", "134906.187000", "134906.187000", "134906.187000", "134906.187000", "134906.187000", "134906.203000", "134906.203000", "134906.203000", "134906.203000", "134906.203000", "134906.203000", "134906.203000", "134906.203000", "134906.203000", "134906.218000", "134906.218000", "134906.218000", "134906.218000", "134906.218000", "134906.218000", "134906.234000", "134906.234000", "134906.234000", "135006.187000", "135006.187000", "135006.187000", "135006.187000", "135006.187000", "135006.187000", "135006.187000", "135006.187000", "135006.187000", "135006.203000", "135006.203000", "135006.203000", "135006.203000", "135006.203000", "135006.203000", "135006.203000", "135006.203000", "135006.203000", "135006.218000", "135006.218000", "135006.218000", "135006.218000", "135006.218000", "135006.218000", "135006.218000", "135106.187000", "135106.187000", "135106.187000", "135106.187000", "135106.218000", "135106.218000", "135106.218000", "135106.218000", "135106.218000", "135106.218000", "135106.234000", "135106.234000", "135106.234000", "135106.234000", "135106.234000", "135106.234000", "135106.250000", "135106.250000", "135106.250000", "135106.250000", "135106.250000", "135106.250000", "135106.250000", "135106.250000", "135106.265000", "135106.265000", "135206.187000", "135206.187000", "135206.187000", "135206.187000", "135206.187000", "135206.187000", "135206.187000", "135206.203000", "135206.203000", "135206.203000", "135206.203000", "135206.203000", "135206.203000", "135206.203000", "135206.203000", "135206.203000", "135206.218000", "135206.218000", "135206.218000", "135206.218000", "135206.218000", "135206.218000", "135206.218000", "135206.218000", "135206.234000", "135206.234000", "135206.234000", "135306.187000", "135306.187000", "135306.187000", "135306.187000", "135306.187000", "135306.203000", "135306.203000", "135306.203000", "135306.203000", "135306.203000", "135306.203000", "135306.203000", "135306.218000", "135306.218000", "135306.218000", "135306.218000", "135306.218000", "135306.218000", "135306.218000", "135306.218000", "135306.234000", "135306.234000", "135306.234000", "135306.234000", "135306.234000", "135306.234000", "135406.187000", "135406.187000", "135406.187000", "135406.187000", "135406.187000", "135406.187000", "135406.203000", "135406.203000", "135406.203000", "135406.203000", "135406.203000", "135406.203000", "135406.203000", "135406.203000", "135406.218000", "135406.218000", "135406.218000", "135406.218000", "135406.218000", "135406.218000", "135406.218000", "135406.218000", "135406.218000", "135406.234000", "135406.234000", "135406.234000", "135506.187000", "135506.187000", "135506.187000", "135506.187000", "135506.187000", "135506.187000", "135506.187000", "135506.187000", "135506.187000", "135506.203000", "135506.203000", "135506.203000", "135506.203000", "135506.203000", "135506.218000", "135506.218000", "135506.218000", "135506.218000", "135506.218000", "135506.218000", "135506.218000", "135506.218000", "135506.234000", "135506.234000", "135506.234000", "135506.234000", "135543.046000", "135543.046000", "135543.046000", "135543.046000", "135543.062000", "135543.062000", "135543.062000", "135543.062000", "135543.078000", "135543.078000", "135543.078000", "135543.078000", "135543.078000", "135543.078000", "135543.093000", "135543.093000"],
      "DataSetTrailingPadding": [
        "\u0000\u0000\u0000\u0000\u0000\u0000\u0000\u0000\u0000\u0000\u0000\u0000\u0000\u0000\u0000\u0000\u0000\u0000\u0000\u0000\u0000\u0000\u0000\u0000\u0000\u0000\u0000\u0000\u0000\u0000",
        "\u0000\u0000\u0000\u0000\u0000\u0000\u0000\u0000\u0000\u0000\u0000\u0000\u0000\u0000\u0000\u0000\u0000\u0000\u0000\u0000\u0000\u0000\u0000\u0000\u0000\u0000\u0000\u0000\u0000\u0000",
        "\u0000\u0000\u0000\u0000\u0000\u0000\u0000\u0000\u0000\u0000\u0000\u0000\u0000\u0000\u0000\u0000\u0000\u0000\u0000\u0000\u0000\u0000\u0000\u0000\u0000\u0000\u0000\u0000\u0000\u0000",
        "\u0000\u0000\u0000\u0000\u0000\u0000\u0000\u0000\u0000\u0000\u0000\u0000\u0000\u0000\u0000\u0000\u0000\u0000\u0000\u0000\u0000\u0000\u0000\u0000\u0000\u0000\u0000\u0000\u0000\u0000\u0000\u0000",
        "\u0000\u0000\u0000\u0000\u0000\u0000\u0000\u0000\u0000\u0000\u0000\u0000\u0000\u0000\u0000\u0000\u0000\u0000\u0000\u0000\u0000\u0000\u0000\u0000\u0000\u0000\u0000\u0000\u0000\u0000\u0000\u0000",
        "\u0000\u0000\u0000\u0000\u0000\u0000\u0000\u0000\u0000\u0000\u0000\u0000\u0000\u0000\u0000\u0000\u0000\u0000\u0000\u0000\u0000\u0000\u0000\u0000\u0000\u0000\u0000\u0000\u0000\u0000",
        "\u0000\u0000\u0000\u0000\u0000\u0000\u0000\u0000\u0000\u0000\u0000\u0000\u0000\u0000\u0000\u0000\u0000\u0000\u0000\u0000\u0000\u0000\u0000\u0000\u0000\u0000\u0000\u0000\u0000\u0000",
        "\u0000\u0000\u0000\u0000\u0000\u0000\u0000\u0000\u0000\u0000\u0000\u0000\u0000\u0000\u0000\u0000\u0000\u0000\u0000\u0000\u0000\u0000\u0000\u0000\u0000\u0000\u0000\u0000\u0000\u0000",
        "\u0000\u0000\u0000\u0000\u0000\u0000\u0000\u0000\u0000\u0000\u0000\u0000\u0000\u0000\u0000\u0000\u0000\u0000\u0000\u0000\u0000\u0000\u0000\u0000\u0000\u0000\u0000\u0000\u0000\u0000\u0000\u0000",
        "\u0000\u0000\u0000\u0000\u0000\u0000\u0000\u0000\u0000\u0000\u0000\u0000\u0000\u0000\u0000\u0000\u0000\u0000\u0000\u0000\u0000\u0000\u0000\u0000\u0000\u0000\u0000\u0000\u0000\u0000\u0000\u0000",
        "\u0000\u0000\u0000\u0000\u0000\u0000\u0000\u0000\u0000\u0000\u0000\u0000\u0000\u0000\u0000\u0000\u0000\u0000\u0000\u0000\u0000\u0000\u0000\u0000\u0000\u0000\u0000\u0000\u0000\u0000",
        "\u0000\u0000\u0000\u0000\u0000\u0000\u0000\u0000\u0000\u0000\u0000\u0000\u0000\u0000\u0000\u0000\u0000\u0000\u0000\u0000\u0000\u0000\u0000\u0000\u0000\u0000\u0000\u0000\u0000\u0000",
        "\u0000\u0000\u0000\u0000\u0000\u0000\u0000\u0000\u0000\u0000\u0000\u0000\u0000\u0000\u0000\u0000\u0000\u0000\u0000\u0000\u0000\u0000\u0000\u0000\u0000\u0000\u0000\u0000\u0000\u0000",
        "\u0000\u0000\u0000\u0000\u0000\u0000\u0000\u0000\u0000\u0000\u0000\u0000\u0000\u0000\u0000\u0000\u0000\u0000\u0000\u0000\u0000\u0000\u0000\u0000\u0000\u0000\u0000\u0000\u0000\u0000\u0000\u0000",
        "\u0000\u0000\u0000\u0000\u0000\u0000\u0000\u0000\u0000\u0000\u0000\u0000\u0000\u0000\u0000\u0000\u0000\u0000\u0000\u0000\u0000\u0000\u0000\u0000\u0000\u0000\u0000\u0000\u0000\u0000\u0000\u0000",
        "\u0000\u0000\u0000\u0000\u0000\u0000\u0000\u0000\u0000\u0000\u0000\u0000\u0000\u0000\u0000\u0000\u0000\u0000\u0000\u0000\u0000\u0000\u0000\u0000\u0000\u0000\u0000\u0000\u0000\u0000",
        "\u0000\u0000\u0000\u0000\u0000\u0000\u0000\u0000\u0000\u0000\u0000\u0000\u0000\u0000\u0000\u0000\u0000\u0000\u0000\u0000\u0000\u0000\u0000\u0000\u0000\u0000\u0000\u0000\u0000\u0000\u0000\u0000",
        "\u0000\u0000\u0000\u0000\u0000\u0000\u0000\u0000\u0000\u0000\u0000\u0000\u0000\u0000\u0000\u0000\u0000\u0000\u0000\u0000\u0000\u0000\u0000\u0000\u0000\u0000\u0000\u0000\u0000\u0000\u0000\u0000",
        "\u0000\u0000\u0000\u0000\u0000\u0000\u0000\u0000\u0000\u0000\u0000\u0000\u0000\u0000\u0000\u0000\u0000\u0000\u0000\u0000\u0000\u0000\u0000\u0000\u0000\u0000\u0000\u0000\u0000\u0000\u0000\u0000",
        "\u0000\u0000\u0000\u0000\u0000\u0000\u0000\u0000\u0000\u0000\u0000\u0000\u0000\u0000\u0000\u0000\u0000\u0000\u0000\u0000\u0000\u0000\u0000\u0000\u0000\u0000\u0000\u0000\u0000\u0000\u0000\u0000",
        "\u0000\u0000\u0000\u0000\u0000\u0000\u0000\u0000\u0000\u0000\u0000\u0000\u0000\u0000\u0000\u0000\u0000\u0000\u0000\u0000\u0000\u0000\u0000\u0000\u0000\u0000\u0000\u0000\u0000\u0000",
        "\u0000\u0000\u0000\u0000\u0000\u0000\u0000\u0000\u0000\u0000\u0000\u0000\u0000\u0000\u0000\u0000\u0000\u0000\u0000\u0000\u0000\u0000\u0000\u0000\u0000\u0000\u0000\u0000\u0000\u0000",
        "\u0000\u0000\u0000\u0000\u0000\u0000\u0000\u0000\u0000\u0000\u0000\u0000\u0000\u0000\u0000\u0000\u0000\u0000\u0000\u0000\u0000\u0000\u0000\u0000\u0000\u0000\u0000\u0000\u0000\u0000\u0000\u0000\u0000\u0000",
        "\u0000\u0000\u0000\u0000\u0000\u0000\u0000\u0000\u0000\u0000\u0000\u0000\u0000\u0000\u0000\u0000\u0000\u0000\u0000\u0000\u0000\u0000\u0000\u0000\u0000\u0000\u0000\u0000\u0000\u0000\u0000\u0000",
        "\u0000\u0000\u0000\u0000\u0000\u0000\u0000\u0000\u0000\u0000\u0000\u0000\u0000\u0000\u0000\u0000\u0000\u0000\u0000\u0000\u0000\u0000\u0000\u0000\u0000\u0000\u0000\u0000\u0000\u0000\u0000\u0000",
        "\u0000\u0000\u0000\u0000\u0000\u0000\u0000\u0000\u0000\u0000\u0000\u0000\u0000\u0000\u0000\u0000\u0000\u0000\u0000\u0000\u0000\u0000\u0000\u0000\u0000\u0000\u0000\u0000\u0000\u0000",
        "\u0000\u0000\u0000\u0000\u0000\u0000\u0000\u0000\u0000\u0000\u0000\u0000\u0000\u0000\u0000\u0000\u0000\u0000\u0000\u0000\u0000\u0000\u0000\u0000\u0000\u0000\u0000\u0000\u0000\u0000",
        "\u0000\u0000\u0000\u0000\u0000\u0000\u0000\u0000\u0000\u0000\u0000\u0000\u0000\u0000\u0000\u0000\u0000\u0000\u0000\u0000\u0000\u0000\u0000\u0000\u0000\u0000\u0000\u0000\u0000\u0000\u0000\u0000",
        "\u0000\u0000\u0000\u0000\u0000\u0000\u0000\u0000\u0000\u0000\u0000\u0000\u0000\u0000\u0000\u0000\u0000\u0000\u0000\u0000\u0000\u0000\u0000\u0000\u0000\u0000\u0000\u0000\u0000\u0000\u0000\u0000",
        "\u0000\u0000\u0000\u0000\u0000\u0000\u0000\u0000\u0000\u0000\u0000\u0000\u0000\u0000\u0000\u0000\u0000\u0000\u0000\u0000\u0000\u0000\u0000\u0000\u0000\u0000\u0000\u0000\u0000\u0000\u0000\u0000",
        "\u0000\u0000\u0000\u0000\u0000\u0000\u0000\u0000\u0000\u0000\u0000\u0000\u0000\u0000\u0000\u0000\u0000\u0000\u0000\u0000\u0000\u0000\u0000\u0000\u0000\u0000\u0000\u0000\u0000\u0000",
        "\u0000\u0000\u0000\u0000\u0000\u0000\u0000\u0000\u0000\u0000\u0000\u0000\u0000\u0000\u0000\u0000\u0000\u0000\u0000\u0000\u0000\u0000\u0000\u0000\u0000\u0000\u0000\u0000\u0000\u0000",
        "\u0000\u0000\u0000\u0000\u0000\u0000\u0000\u0000\u0000\u0000\u0000\u0000\u0000\u0000\u0000\u0000\u0000\u0000\u0000\u0000\u0000\u0000\u0000\u0000\u0000\u0000\u0000\u0000\u0000\u0000\u0000\u0000",
        "\u0000\u0000\u0000\u0000\u0000\u0000\u0000\u0000\u0000\u0000\u0000\u0000\u0000\u0000\u0000\u0000\u0000\u0000\u0000\u0000\u0000\u0000\u0000\u0000\u0000\u0000\u0000\u0000\u0000\u0000\u0000\u0000",
        "\u0000\u0000\u0000\u0000\u0000\u0000\u0000\u0000\u0000\u0000\u0000\u0000\u0000\u0000\u0000\u0000\u0000\u0000\u0000\u0000\u0000\u0000\u0000\u0000\u0000\u0000\u0000\u0000\u0000\u0000\u0000\u0000",
        "\u0000\u0000\u0000\u0000\u0000\u0000\u0000\u0000\u0000\u0000\u0000\u0000\u0000\u0000\u0000\u0000\u0000\u0000\u0000\u0000\u0000\u0000\u0000\u0000\u0000\u0000\u0000\u0000\u0000\u0000",
        "\u0000\u0000\u0000\u0000\u0000\u0000\u0000\u0000\u0000\u0000\u0000\u0000\u0000\u0000\u0000\u0000\u0000\u0000\u0000\u0000\u0000\u0000\u0000\u0000\u0000\u0000\u0000\u0000\u0000\u0000",
        "\u0000\u0000\u0000\u0000\u0000\u0000\u0000\u0000\u0000\u0000\u0000\u0000\u0000\u0000\u0000\u0000\u0000\u0000\u0000\u0000\u0000\u0000\u0000\u0000\u0000\u0000\u0000\u0000\u0000\u0000\u0000\u0000",
        "\u0000\u0000\u0000\u0000\u0000\u0000\u0000\u0000\u0000\u0000\u0000\u0000\u0000\u0000\u0000\u0000\u0000\u0000\u0000\u0000\u0000\u0000\u0000\u0000\u0000\u0000\u0000\u0000\u0000\u0000\u0000\u0000\u0000\u0000",
        "\u0000\u0000\u0000\u0000\u0000\u0000\u0000\u0000\u0000\u0000\u0000\u0000\u0000\u0000\u0000\u0000\u0000\u0000\u0000\u0000\u0000\u0000\u0000\u0000\u0000\u0000\u0000\u0000\u0000\u0000",
        "\u0000\u0000\u0000\u0000\u0000\u0000\u0000\u0000\u0000\u0000\u0000\u0000\u0000\u0000\u0000\u0000\u0000\u0000\u0000\u0000\u0000\u0000\u0000\u0000\u0000\u0000\u0000\u0000\u0000\u0000",
        "\u0000\u0000\u0000\u0000\u0000\u0000\u0000\u0000\u0000\u0000\u0000\u0000\u0000\u0000\u0000\u0000\u0000\u0000\u0000\u0000\u0000\u0000\u0000\u0000\u0000\u0000\u0000\u0000\u0000\u0000",
        "\u0000\u0000\u0000\u0000\u0000\u0000\u0000\u0000\u0000\u0000\u0000\u0000\u0000\u0000\u0000\u0000\u0000\u0000\u0000\u0000\u0000\u0000\u0000\u0000\u0000\u0000\u0000\u0000\u0000\u0000\u0000\u0000",
        "\u0000\u0000\u0000\u0000\u0000\u0000\u0000\u0000\u0000\u0000\u0000\u0000\u0000\u0000\u0000\u0000\u0000\u0000\u0000\u0000\u0000\u0000\u0000\u0000\u0000\u0000\u0000\u0000\u0000\u0000\u0000\u0000",
        "\u0000\u0000\u0000\u0000\u0000\u0000\u0000\u0000\u0000\u0000\u0000\u0000\u0000\u0000\u0000\u0000\u0000\u0000\u0000\u0000\u0000\u0000\u0000\u0000\u0000\u0000\u0000\u0000\u0000\u0000",
        "\u0000\u0000\u0000\u0000\u0000\u0000\u0000\u0000\u0000\u0000\u0000\u0000\u0000\u0000\u0000\u0000\u0000\u0000\u0000\u0000\u0000\u0000\u0000\u0000\u0000\u0000\u0000\u0000\u0000\u0000\u0000\u0000\u0000\u0000",
        "\u0000\u0000\u0000\u0000\u0000\u0000\u0000\u0000\u0000\u0000\u0000\u0000\u0000\u0000\u0000\u0000\u0000\u0000\u0000\u0000\u0000\u0000\u0000\u0000\u0000\u0000\u0000\u0000\u0000\u0000",
        "\u0000\u0000\u0000\u0000\u0000\u0000\u0000\u0000\u0000\u0000\u0000\u0000\u0000\u0000\u0000\u0000\u0000\u0000\u0000\u0000\u0000\u0000\u0000\u0000\u0000\u0000\u0000\u0000\u0000\u0000\u0000\u0000",
        "\u0000\u0000\u0000\u0000\u0000\u0000\u0000\u0000\u0000\u0000\u0000\u0000\u0000\u0000\u0000\u0000\u0000\u0000\u0000\u0000\u0000\u0000\u0000\u0000\u0000\u0000\u0000\u0000\u0000\u0000\u0000\u0000",
        "\u0000\u0000\u0000\u0000\u0000\u0000\u0000\u0000\u0000\u0000\u0000\u0000\u0000\u0000\u0000\u0000\u0000\u0000\u0000\u0000\u0000\u0000\u0000\u0000\u0000\u0000\u0000\u0000\u0000\u0000",
        "\u0000\u0000\u0000\u0000\u0000\u0000\u0000\u0000\u0000\u0000\u0000\u0000\u0000\u0000\u0000\u0000\u0000\u0000\u0000\u0000\u0000\u0000\u0000\u0000\u0000\u0000\u0000\u0000\u0000\u0000",
        "\u0000\u0000\u0000\u0000\u0000\u0000\u0000\u0000\u0000\u0000\u0000\u0000\u0000\u0000\u0000\u0000\u0000\u0000\u0000\u0000\u0000\u0000\u0000\u0000\u0000\u0000\u0000\u0000\u0000\u0000",
