{
  "AcquisitionMatrixPE": 110,
  "AcquisitionNumber": 1,
  "AcquisitionTime": "16:21:22.260000",
  "BandwidthPerPixelPhaseEncode": 26.35,
  "BaseResolution": 110,
  "CoilString": "C:HEA;HEP",
  "ConversionSoftware": "dcm2niix",
  "ConversionSoftwareVersion": "v1.0.20190410  GCC6.3.0",
  "DerivedVendorReportedEchoSpacing": 0.000690012,
  "DeviceSerialNumber": "35422",
  "DwellTime": 2.6e-06,
  "EchoTime": 0.03,
  "EffectiveEchoSpacing": 0.000345006,
  "FlipAngle": 85,
  "ImageComments": "Unaliased_MB4_PE4_LB",
  "ImageOrientationPatientDICOM": [0.999997, -0.000495351, -0.0023595, 1.87482e-10, 0.978665, -0.20546],
  "ImageType": [
    "ORIGINAL",
    "PRIMARY",
    "FMRI",
    "NONE",
    "MB",
    "ND",
    "MOSAIC"
],
  "ImagingFrequency": 123.178,
  "InPlanePhaseEncodingDirectionDICOM": "ROW",
  "InstitutionAddress": "kwanakro_599_C4F276_Seoul_KR_ZIP",
  "InstitutionName": "SNUBIC",
  "InstitutionalDepartmentName": "Department",
  "MRAcquisitionType": "2D",
  "MagneticFieldStrength": 3,
  "Manufacturer": "Siemens",
  "ManufacturersModelName": "TrioTim",
  "Modality": "MR",
  "MultibandAccelerationFactor": 4,
  "ParallelReductionFactorInPlane": 2,
  "PartialFourier": 1,
  "PatientPosition": "HFS",
  "PercentPhaseFOV": 100,
  "PhaseEncodingDirection": "i-",
  "PhaseEncodingSteps": 110,
  "PhaseResolution": 1,
  "PixelBandwidth": 1748,
  "ProcedureStepDescription": "SNU_SAVED",
  "ProtocolName": "WMGNG1_MB4_LR_SBRef",
  "PulseSequenceDetails": "%CustomerSeq%_cmrr_mbep2d_bold",
  "ReceiveCoilName": "32Ch_Head",
  "ReconMatrixPE": 110,
  "RefLinesPE": 32,
  "RepetitionTime": 1.5,
  "SAR": 0.116032,
  "ScanOptions": "FS",
  "ScanningSequence": "EP",
  "SequenceName": "epfid2d1_110",
  "SequenceVariant": "SK_SS",
  "SeriesDescription": "WMGNG1_MB4_LR_SBRef",
  "SeriesNumber": 3,
  "ShimSetting": [-4160, -29532, -2138, 636, -186, 691, -302, -26],
  "SliceThickness": 2.3,
  "SliceTiming": [0, 0.6575, 1.3175, 0.47, 1.13, 0.2825, 0.94, 0.095, 0.7525, 1.41, 0.565, 1.2225, 0.375, 1.035, 0.1875, 0.8475, 0, 0.6575, 1.3175, 0.47, 1.13, 0.2825, 0.94, 0.095, 0.7525, 1.41, 0.565, 1.2225, 0.375, 1.035, 0.1875, 0.8475, 0, 0.6575, 1.3175, 0.47, 1.13, 0.2825, 0.94, 0.095, 0.7525, 1.41, 0.565, 1.2225, 0.375, 1.035, 0.1875, 0.8475, 0, 0.6575, 1.3175, 0.47, 1.13, 0.2825, 0.94, 0.095, 0.7525, 1.41, 0.565, 1.2225, 0.375, 1.035, 0.1875, 0.8475],
  "SoftwareVersions": "syngo_MR_B17",
  "SpacingBetweenSlices": 2.3,
  "StationName": "MRC35422",
  "TaskName": "wmgng",
  "TotalReadoutTime": 0.0376057,
  "TxRefAmp": 315.727,
  "dcmmeta_affine": [
    [-2.327265977859497, 4.3632125690251655e-10, -0.005545143038034439, 134.1700897216797],
    [0.0011528169270604849, 2.277621269226074, -0.47255739569664, -111.63243103027344],
    [-0.005491189658641815, 0.4781621992588043, 2.2509241104125977, -82.19444274902344],
    [0.0, 0.0, 0.0, 1.0]
],
  "dcmmeta_reorient_transform": [
    [0.0, -1.0, 0.0, 109.0],
    [1.0, 0.0, 0.0, 0.0],
    [0.0, 0.0, 1.0, 0.0],
    [0.0, 0.0, 0.0, 1.0]
],
  "dcmmeta_shape": [110, 110, 64, 357],
  "dcmmeta_slice_dim": 2,
  "dcmmeta_version": 0.6,
  "global": {
    "const": {
      "AcquisitionMatrix": [0, 110, 110, 0],
      "AngioFlag": "N",
      "BitsAllocated": 16,
      "BitsStored": 12,
      "Columns": 880,
      "EchoNumbers": 1,
      "EchoTime": 30.0,
      "EchoTrainLength": 1,
      "FlipAngle": 85.0,
      "HighBit": 11,
      "ImageOrientationPatient": [0.99999709369981, -0.0004953510192, -0.0023594955602, 1.874818e-10, 0.97866544463875, -0.2054603306481],
      "ImagePositionPatient": [-1030.167463384, -1013.0686666942, 156.1317979721],
      "ImageType": [
        "ORIGINAL",
        "PRIMARY",
        "FMRI",
        "NONE",
        "MB",
        "ND",
        "MOSAIC"
],
      "ImagedNucleus": "1H",
      "ImagingFrequency": 123.177633,
      "InPlanePhaseEncodingDirection": "ROW",
      "MRAcquisitionType": "2D",
      "MagneticFieldStrength": 3.0,
      "Manufacturer": "SIEMENS",
      "ManufacturerModelName": "TrioTim",
      "Modality": "MR",
      "NumberOfAverages": 1.0,
      "NumberOfPhaseEncodingSteps": 110,
      "PercentPhaseFieldOfView": 100.0,
      "PercentSampling": 100.0,
      "PerformedProcedureStepStartTime": "161242.468000",
      "PhotometricInterpretation": "MONOCHROME2",
      "PixelBandwidth": 1748.0,
      "PixelRepresentation": 0,
      "PixelSpacing": [2.3272726535797, 2.3272726535797],
      "ProtocolName": "WMGNG1_MB4_LR_SBRef",
      "ReferencedPerformedProcedureStepSequence": [
        {
          "ReferencedSOPClassUID": "1.2.840.10008.3.1.2.3.3",
          "ReferencedSOPInstanceUID": "1.3.12.2.1107.5.2.32.35422.30000019122407124248400000000"}
],
      "RepetitionTime": 1500.0,
      "Rows": 880,
      "SAR": 0.11603175473724,
      "SamplesPerPixel": 1,
      "ScanOptions": "FS",
      "ScanningSequence": "EP",
      "SequenceName": "epfid2d1_110",
      "SequenceVariant": [
        "SK",
        "SS"
],
      "SeriesDescription": "WMGNG1_MB4_LR_SBRef",
      "SeriesNumber": 3,
      "SeriesTime": "162254.125000",
      "SliceLocation": -57.828130346244,
      "SliceThickness": 2.2999999523163,
      "SmallestImagePixelValue": 0,
      "SoftwareVersions": "syngo MR B17",
      "SpacingBetweenSlices": 2.3000000166519,
      "SpecificCharacterSet": "ISO_IR 100",
      "StudyID": "1",
      "StudyTime": "161242.281000",
      "TransmitCoilName": "Body",
      "VariableFlipAngleFlag": "N",
      "WindowCenterWidthExplanation": "Algo1",
      "dBdt": 0.0},
    "slices": {}
  },
  "time": {
    "samples": {
      "AcquisitionNumber": [1, 2, 3, 4, 5, 6, 7, 8, 9, 10, 11, 12, 13, 14, 15, 16, 17, 18, 19, 20, 21, 22, 23, 24, 25, 26, 27, 28, 29, 30, 31, 32, 33, 34, 35, 36, 37, 38, 39, 40, 41, 42, 43, 44, 45, 46, 47, 48, 49, 50, 51, 52, 53, 54, 55, 56, 57, 58, 59, 60, 61, 62, 63, 64, 65, 66, 67, 68, 69, 70, 71, 72, 73, 74, 75, 76, 77, 78, 79, 80, 81, 82, 83, 84, 85, 86, 87, 88, 89, 90, 91, 92, 93, 94, 95, 96, 97, 98, 99, 100, 101, 102, 103, 104, 105, 106, 107, 108, 109, 110, 111, 112, 113, 114, 115, 116, 117, 118, 119, 120, 121, 122, 123, 124, 125, 126, 127, 128, 129, 130, 131, 132, 133, 134, 135, 136, 137, 138, 139, 140, 141, 142, 143, 144, 145, 146, 147, 148, 149, 150, 151, 152, 153, 154, 155, 156, 157, 158, 159, 160, 161, 162, 163, 164, 165, 166, 167, 168, 169, 170, 171, 172, 173, 174, 175, 176, 177, 178, 179, 180, 181, 182, 183, 184, 185, 186, 187, 188, 189, 190, 191, 192, 193, 194, 195, 196, 197, 198, 199, 200, 201, 202, 203, 204, 205, 206, 207, 208, 209, 210, 211, 212, 213, 214, 215, 216, 217, 218, 219, 220, 221, 222, 223, 224, 225, 226, 227, 228, 229, 230, 231, 232, 233, 234, 235, 236, 237, 238, 239, 240, 241, 242, 243, 244, 245, 246, 247, 248, 249, 250, 251, 252, 253, 254, 255, 256, 257, 258, 259, 260, 261, 262, 263, 264, 265, 266, 267, 268, 269, 270, 271, 272, 273, 274, 275, 276, 277, 278, 279, 280, 281, 282, 283, 284, 285, 286, 287, 288, 289, 290, 291, 292, 293, 294, 295, 296, 297, 298, 299, 300, 301, 302, 303, 304, 305, 306, 307, 308, 309, 310, 311, 312, 313, 314, 315, 316, 317, 318, 319, 320, 321, 322, 323, 324, 325, 326, 327, 328, 329, 330, 331, 332, 333, 334, 335, 336, 337, 338, 339, 340, 341, 342, 343, 344, 345, 346, 347, 348, 349, 350, 351, 352, 353, 354, 355, 356, 357],
      "AcquisitionTime": ["162122.260000", "162123.765000", "162125.272500", "162126.777500", "162128.285000", "162129.790000", "162131.295000", "162132.802500", "162134.307500", "162135.815000", "162137.320000", "162138.825000", "162140.332500", "162141.837500", "162143.345000", "162144.850000", "162146.355000", "162147.862500", "162149.367500", "162150.875000", "162152.380000", "162153.887500", "162155.392500", "162156.897500", "162158.405000", "162159.910000", "162201.417500", "162202.922500", "162204.427500", "162205.935000", "162207.440000", "162208.947500", "162210.452500", "162211.957500", "162213.465000", "162214.970000", "162216.477500", "162217.982500", "162219.487500", "162220.995000", "162222.500000", "162224.007500", "162225.512500", "162227.020000", "162228.525000", "162230.030000", "162231.537500", "162233.042500", "162234.550000", "162236.055000", "162237.560000", "162239.067500", "162240.572500", "162242.080000", "162243.585000", "162245.090000", "162246.597500", "162248.102500", "162249.610000", "162251.115000", "162252.620000", "162254.127500", "162255.632500", "162257.140000", "162258.645000", "162300.152500", "162301.657500", "162303.162500", "162304.670000", "162306.175000", "162307.682500", "162309.187500", "162310.692500", "162312.200000", "162313.705000", "162315.212500", "162316.717500", "162318.222500", "162319.730000", "162321.235000", "162322.742500", "162324.247500", "162325.752500", "162327.260000", "162328.765000", "162330.272500", "162331.777500", "162333.285000", "162334.790000", "162336.295000", "162337.802500", "162339.307500", "162340.815000", "162342.320000", "162343.825000", "162345.332500", "162346.837500", "162348.345000", "162349.850000", "162351.355000", "162352.862500", "162354.367500", "162355.875000", "162357.380000", "162358.887500", "162400.392500", "162401.897500", "162403.405000", "162404.910000", "162406.417500", "162407.922500", "162409.427500", "162410.935000", "162412.440000", "162413.947500", "162415.452500", "162416.957500", "162418.465000", "162419.970000", "162421.477500", "162422.982500", "162424.487500", "162425.995000", "162427.500000", "162429.007500", "162430.512500", "162432.020000", "162433.525000", "162435.030000", "162436.537500", "162438.042500", "162439.550000", "162441.055000", "162442.560000", "162444.067500", "162445.572500", "162447.080000", "162448.585000", "162450.090000", "162451.597500", "162453.102500", "162454.610000", "162456.115000", "162457.620000", "162459.127500", "162500.632500", "162502.140000", "162503.645000", "162505.152500", "162506.657500", "162508.162500", "162509.670000", "162511.175000", "162512.682500", "162514.187500", "162515.692500", "162517.200000", "162518.705000", "162520.212500", "162521.717500", "162523.222500", "162524.730000", "162526.235000", "162527.742500", "162529.247500", "162530.752500", "162532.260000", "162533.765000", "162535.272500", "162536.777500", "162538.285000", "162539.790000", "162541.295000", "162542.802500", "162544.307500", "162545.815000", "162547.320000", "162548.825000", "162550.332500", "162551.837500", "162553.345000", "162554.850000", "162556.355000", "162557.862500", "162559.367500", "162600.875000", "162602.380000", "162603.887500", "162605.392500", "162606.897500", "162608.405000", "162609.910000", "162611.417500", "162612.922500", "162614.427500", "162615.935000", "162617.440000", "162618.947500", "162620.452500", "162621.957500", "162623.465000", "162624.970000", "162626.477500", "162627.982500", "162629.487500", "162630.995000", "162632.500000", "162634.007500", "162635.512500", "162637.020000", "162638.525000", "162640.030000", "162641.537500", "162643.042500", "162644.550000", "162646.055000", "162647.560000", "162649.067500", "162650.572500", "162652.080000", "162653.585000", "162655.090000", "162656.597500", "162658.102500", "162659.610000", "162701.115000", "162702.620000", "162704.127500", "162705.632500", "162707.140000", "162708.645000", "162710.152500", "162711.657500", "162713.162500", "162714.670000", "162716.175000", "162717.682500", "162719.187500", "162720.692500", "162722.200000", "162723.705000", "162725.212500", "162726.717500", "162728.222500", "162729.730000", "162731.235000", "162732.742500", "162734.247500", "162735.752500", "162737.260000", "162738.765000", "162740.272500", "162741.777500", "162743.285000", "162744.790000", "162746.295000", "162747.802500", "162749.307500", "162750.815000", "162752.320000", "162753.825000", "162755.332500", "162756.837500", "162758.345000", "162759.850000", "162801.355000", "162802.862500", "162804.367500", "162805.875000", "162807.380000", "162808.887500", "162810.392500", "162811.897500", "162813.405000", "162814.910000", "162816.417500", "162817.922500", "162819.427500", "162820.935000", "162822.440000", "162823.947500", "162825.452500", "162826.957500", "162828.465000", "162829.970000", "162831.477500", "162832.982500", "162834.487500", "162835.995000", "162837.500000", "162839.007500", "162840.512500", "162842.020000", "162843.525000", "162845.030000", "162846.537500", "162848.042500", "162849.550000", "162851.055000", "162852.560000", "162854.067500", "162855.572500", "162857.080000", "162858.585000", "162900.090000", "162901.597500", "162903.102500", "162904.610000", "162906.115000", "162907.620000", "162909.127500", "162910.632500", "162912.140000", "162913.645000", "162915.152500", "162916.657500", "162918.162500", "162919.670000", "162921.175000", "162922.682500", "162924.187500", "162925.692500", "162927.200000", "162928.705000", "162930.212500", "162931.717500", "162933.222500", "162934.730000", "162936.235000", "162937.742500", "162939.247500", "162940.752500", "162942.260000", "162943.765000", "162945.272500", "162946.777500", "162948.285000", "162949.790000", "162951.295000", "162952.802500", "162954.307500", "162955.815000", "162957.320000", "162958.825000", "163000.332500", "163001.837500", "163003.345000", "163004.850000", "163006.355000", "163007.862500", "163009.367500", "163010.875000", "163012.380000", "163013.887500", "163015.392500", "163016.897500", "163018.405000"],
      "ContentTime": ["162254.156000", "162254.156000", "162254.156000", "162254.156000", "162254.156000", "162254.156000", "162254.171000", "162254.171000", "162254.171000", "162254.171000", "162254.171000", "162254.187000", "162254.187000", "162254.187000", "162254.187000", "162254.187000", "162254.187000", "162254.187000", "162254.203000", "162254.203000", "162254.203000", "162254.203000", "162254.203000", "162254.203000", "162254.203000", "162254.218000", "162354.125000", "162354.125000", "162354.125000", "162354.140000", "162354.140000", "162354.140000", "162354.140000", "162354.156000", "162354.156000", "162354.156000", "162354.156000", "162354.156000", "162354.156000", "162354.156000", "162354.156000", "162354.156000", "162354.156000", "162354.171000", "162354.171000", "162354.171000", "162354.171000", "162354.171000", "162354.171000", "162354.171000", "162354.171000", "162354.171000", "162454.125000", "162454.125000", "162454.125000", "162454.125000", "162454.140000", "162454.140000", "162454.140000", "162454.140000", "162454.140000", "162454.140000", "162454.140000", "162454.140000", "162454.140000", "162454.156000", "162454.156000", "162454.156000", "162454.156000", "162454.156000", "162454.156000", "162454.156000", "162454.156000", "162454.156000", "162454.171000", "162454.171000", "162454.171000", "162454.171000", "162454.171000", "162554.125000", "162554.125000", "162554.125000", "162554.125000", "162554.140000", "162554.140000", "162554.140000", "162554.140000", "162554.140000", "162554.140000", "162554.140000", "162554.156000", "162554.156000", "162554.156000", "162554.156000", "162554.156000", "162554.171000", "162554.171000", "162554.171000", "162554.171000", "162554.171000", "162554.171000", "162554.171000", "162554.171000", "162554.171000", "162554.187000", "162654.125000", "162654.125000", "162654.125000", "162654.140000", "162654.140000", "162654.140000", "162654.140000", "162654.140000", "162654.140000", "162654.156000", "162654.156000", "162654.156000", "162654.156000", "162654.156000", "162654.156000", "162654.156000", "162654.156000", "162654.156000", "162654.171000", "162654.171000", "162654.171000", "162654.171000", "162654.171000", "162654.171000", "162654.187000", "162654.187000", "162754.125000", "162754.125000", "162754.125000", "162754.125000", "162754.125000", "162754.140000", "162754.140000", "162754.140000", "162754.140000", "162754.140000", "162754.140000", "162754.140000", "162754.140000", "162754.140000", "162754.156000", "162754.156000", "162754.156000", "162754.156000", "162754.156000", "162754.156000", "162754.156000", "162754.156000", "162754.156000", "162754.171000", "162754.171000", "162754.171000", "162754.171000", "162854.125000", "162854.125000", "162854.125000", "162854.125000", "162854.140000", "162854.140000", "162854.140000", "162854.140000", "162854.140000", "162854.140000", "162854.156000", "162854.156000", "162854.156000", "162854.156000", "162854.156000", "162854.156000", "162854.156000", "162854.156000", "162854.156000", "162854.171000", "162854.171000", "162854.171000", "162854.171000", "162854.171000", "162854.171000", "162854.187000", "162954.125000", "162954.125000", "162954.125000", "162954.125000", "162954.140000", "162954.140000", "162954.140000", "162954.140000", "162954.140000", "162954.140000", "162954.140000", "162954.140000", "162954.140000", "162954.156000", "162954.156000", "162954.156000", "162954.156000", "162954.156000", "162954.156000", "162954.156000", "162954.156000", "162954.156000", "162954.171000", "162954.171000", "162954.171000", "162954.171000", "162954.171000", "163054.125000", "163054.125000", "163054.125000", "163054.125000", "163054.140000", "163054.140000", "163054.140000", "163054.140000", "163054.140000", "163054.140000", "163054.140000", "163054.140000", "163054.140000", "163054.156000", "163054.156000", "163054.156000", "163054.156000", "163054.171000", "163054.171000", "163054.171000", "163054.171000", "163054.171000", "163054.171000", "163054.171000", "163054.171000", "163054.171000", "163154.125000", "163154.125000", "163154.125000", "163154.125000", "163154.140000", "163154.140000", "163154.140000", "163154.140000", "163154.140000", "163154.140000", "163154.140000", "163154.156000", "163154.156000", "163154.156000", "163154.156000", "163154.156000", "163154.156000", "163154.156000", "163154.171000", "163154.171000", "163154.171000", "163154.171000", "163154.187000", "163154.187000", "163154.187000", "163154.187000", "163254.125000", "163254.125000", "163254.125000", "163254.125000", "163254.140000", "163254.140000", "163254.140000", "163254.140000", "163254.140000", "163254.156000", "163254.156000", "163254.156000", "163254.156000", "163254.156000", "163254.156000", "163254.156000", "163254.156000", "163254.156000", "163254.171000", "163254.171000", "163254.171000", "163254.187000", "163254.187000", "163254.187000", "163254.187000", "163254.203000", "163354.125000", "163354.125000", "163354.125000", "163354.125000", "163354.140000", "163354.140000", "163354.140000", "163354.140000", "163354.140000", "163354.140000", "163354.140000", "163354.156000", "163354.156000", "163354.156000", "163354.156000", "163354.156000", "163354.156000", "163354.156000", "163354.156000", "163354.171000", "163354.171000", "163354.171000", "163354.171000", "163354.171000", "163354.171000", "163354.187000", "163354.187000", "163454.125000", "163454.125000", "163454.125000", "163454.125000", "163454.140000", "163454.140000", "163454.140000", "163454.140000", "163454.140000", "163454.140000", "163454.140000", "163454.140000", "163454.140000", "163454.156000", "163454.156000", "163454.156000", "163454.156000", "163454.156000", "163454.156000", "163454.156000", "163454.156000", "163454.171000", "163454.171000", "163454.171000", "163454.171000", "163454.171000", "163528.640000", "163528.640000", "163528.640000", "163528.656000", "163528.656000", "163528.656000", "163528.656000", "163528.656000", "163528.656000", "163528.656000", "163528.656000", "163528.656000", "163528.671000", "163528.671000", "163528.671000"],
      "DataSetTrailingPadding": [
        "\u0000\u0000\u0000\u0000\u0000\u0000\u0000\u0000\u0000\u0000\u0000\u0000\u0000\u0000\u0000\u0000\u0000\u0000\u0000\u0000\u0000\u0000\u0000\u0000\u0000\u0000\u0000\u0000\u0000\u0000\u0000\u0000\u0000\u0000\u0000\u0000\u0000\u0000\u0000\u0000\u0000\u0000\u0000\u0000\u0000\u0000\u0000\u0000\u0000\u0000\u0000\u0000\u0000\u0000\u0000\u0000\u0000\u0000\u0000\u0000\u0000\u0000\u0000\u0000\u0000\u0000\u0000\u0000\u0000\u0000\u0000\u0000\u0000\u0000\u0000\u0000\u0000\u0000\u0000\u0000\u0000\u0000\u0000\u0000\u0000\u0000\u0000\u0000\u0000\u0000",
        "\u0000\u0000\u0000\u0000\u0000\u0000\u0000\u0000\u0000\u0000\u0000\u0000\u0000\u0000\u0000\u0000\u0000\u0000\u0000\u0000\u0000\u0000\u0000\u0000\u0000\u0000\u0000\u0000\u0000\u0000\u0000\u0000\u0000\u0000\u0000\u0000\u0000\u0000\u0000\u0000\u0000\u0000\u0000\u0000\u0000\u0000\u0000\u0000\u0000\u0000\u0000\u0000\u0000\u0000\u0000\u0000\u0000\u0000\u0000\u0000\u0000\u0000\u0000\u0000\u0000\u0000\u0000\u0000\u0000\u0000\u0000\u0000\u0000\u0000\u0000\u0000\u0000\u0000\u0000\u0000\u0000\u0000\u0000\u0000\u0000\u0000\u0000\u0000\u0000\u0000",
        "\u0000\u0000\u0000\u0000\u0000\u0000\u0000\u0000\u0000\u0000\u0000\u0000\u0000\u0000\u0000\u0000\u0000\u0000\u0000\u0000\u0000\u0000\u0000\u0000\u0000\u0000\u0000\u0000\u0000\u0000\u0000\u0000\u0000\u0000\u0000\u0000\u0000\u0000\u0000\u0000\u0000\u0000\u0000\u0000\u0000\u0000\u0000\u0000\u0000\u0000\u0000\u0000\u0000\u0000\u0000\u0000\u0000\u0000\u0000\u0000\u0000\u0000\u0000\u0000\u0000\u0000\u0000\u0000\u0000\u0000\u0000\u0000\u0000\u0000\u0000\u0000\u0000\u0000\u0000\u0000\u0000\u0000\u0000\u0000\u0000\u0000\u0000\u0000\u0000\u0000",
        "\u0000\u0000\u0000\u0000\u0000\u0000\u0000\u0000\u0000\u0000\u0000\u0000\u0000\u0000\u0000\u0000\u0000\u0000\u0000\u0000\u0000\u0000\u0000\u0000\u0000\u0000\u0000\u0000\u0000\u0000\u0000\u0000\u0000\u0000\u0000\u0000\u0000\u0000\u0000\u0000\u0000\u0000\u0000\u0000\u0000\u0000\u0000\u0000\u0000\u0000\u0000\u0000\u0000\u0000\u0000\u0000\u0000\u0000\u0000\u0000\u0000\u0000\u0000\u0000\u0000\u0000\u0000\u0000\u0000\u0000\u0000\u0000\u0000\u0000\u0000\u0000\u0000\u0000\u0000\u0000\u0000\u0000\u0000\u0000\u0000\u0000\u0000\u0000\u0000\u0000\u0000\u0000",
        "\u0000\u0000\u0000\u0000\u0000\u0000\u0000\u0000\u0000\u0000\u0000\u0000\u0000\u0000\u0000\u0000\u0000\u0000\u0000\u0000\u0000\u0000\u0000\u0000\u0000\u0000\u0000\u0000\u0000\u0000\u0000\u0000\u0000\u0000\u0000\u0000\u0000\u0000\u0000\u0000\u0000\u0000\u0000\u0000\u0000\u0000\u0000\u0000\u0000\u0000\u0000\u0000\u0000\u0000\u0000\u0000\u0000\u0000\u0000\u0000\u0000\u0000\u0000\u0000\u0000\u0000\u0000\u0000\u0000\u0000\u0000\u0000\u0000\u0000\u0000\u0000\u0000\u0000\u0000\u0000\u0000\u0000\u0000\u0000\u0000\u0000\u0000\u0000\u0000\u0000\u0000\u0000",
        "\u0000\u0000\u0000\u0000\u0000\u0000\u0000\u0000\u0000\u0000\u0000\u0000\u0000\u0000\u0000\u0000\u0000\u0000\u0000\u0000\u0000\u0000\u0000\u0000\u0000\u0000\u0000\u0000\u0000\u0000\u0000\u0000\u0000\u0000\u0000\u0000\u0000\u0000\u0000\u0000\u0000\u0000\u0000\u0000\u0000\u0000\u0000\u0000\u0000\u0000\u0000\u0000\u0000\u0000\u0000\u0000\u0000\u0000\u0000\u0000\u0000\u0000\u0000\u0000\u0000\u0000\u0000\u0000\u0000\u0000\u0000\u0000\u0000\u0000\u0000\u0000\u0000\u0000\u0000\u0000\u0000\u0000\u0000\u0000\u0000\u0000\u0000\u0000\u0000\u0000",
        "\u0000\u0000\u0000\u0000\u0000\u0000\u0000\u0000\u0000\u0000\u0000\u0000\u0000\u0000\u0000\u0000\u0000\u0000\u0000\u0000\u0000\u0000\u0000\u0000\u0000\u0000\u0000\u0000\u0000\u0000\u0000\u0000\u0000\u0000\u0000\u0000\u0000\u0000\u0000\u0000\u0000\u0000\u0000\u0000\u0000\u0000\u0000\u0000\u0000\u0000\u0000\u0000\u0000\u0000\u0000\u0000\u0000\u0000\u0000\u0000\u0000\u0000\u0000\u0000\u0000\u0000\u0000\u0000\u0000\u0000\u0000\u0000\u0000\u0000\u0000\u0000\u0000\u0000\u0000\u0000\u0000\u0000\u0000\u0000\u0000\u0000\u0000\u0000\u0000\u0000",
        "\u0000\u0000\u0000\u0000\u0000\u0000\u0000\u0000\u0000\u0000\u0000\u0000\u0000\u0000\u0000\u0000\u0000\u0000\u0000\u0000\u0000\u0000\u0000\u0000\u0000\u0000\u0000\u0000\u0000\u0000\u0000\u0000\u0000\u0000\u0000\u0000\u0000\u0000\u0000\u0000\u0000\u0000\u0000\u0000\u0000\u0000\u0000\u0000\u0000\u0000\u0000\u0000\u0000\u0000\u0000\u0000\u0000\u0000\u0000\u0000\u0000\u0000\u0000\u0000\u0000\u0000\u0000\u0000\u0000\u0000\u0000\u0000\u0000\u0000\u0000\u0000\u0000\u0000\u0000\u0000\u0000\u0000\u0000\u0000\u0000\u0000\u0000\u0000\u0000\u0000",
        "\u0000\u0000\u0000\u0000\u0000\u0000\u0000\u0000\u0000\u0000\u0000\u0000\u0000\u0000\u0000\u0000\u0000\u0000\u0000\u0000\u0000\u0000\u0000\u0000\u0000\u0000\u0000\u0000\u0000\u0000\u0000\u0000\u0000\u0000\u0000\u0000\u0000\u0000\u0000\u0000\u0000\u0000\u0000\u0000\u0000\u0000\u0000\u0000\u0000\u0000\u0000\u0000\u0000\u0000\u0000\u0000\u0000\u0000\u0000\u0000\u0000\u0000\u0000\u0000\u0000\u0000\u0000\u0000\u0000\u0000\u0000\u0000\u0000\u0000\u0000\u0000\u0000\u0000\u0000\u0000\u0000\u0000\u0000\u0000\u0000\u0000\u0000\u0000\u0000\u0000\u0000\u0000",
        "\u0000\u0000\u0000\u0000\u0000\u0000\u0000\u0000\u0000\u0000\u0000\u0000\u0000\u0000\u0000\u0000\u0000\u0000\u0000\u0000\u0000\u0000\u0000\u0000\u0000\u0000\u0000\u0000\u0000\u0000\u0000\u0000\u0000\u0000\u0000\u0000\u0000\u0000\u0000\u0000\u0000\u0000\u0000\u0000\u0000\u0000\u0000\u0000\u0000\u0000\u0000\u0000\u0000\u0000\u0000\u0000\u0000\u0000\u0000\u0000\u0000\u0000\u0000\u0000\u0000\u0000\u0000\u0000\u0000\u0000\u0000\u0000\u0000\u0000\u0000\u0000\u0000\u0000\u0000\u0000\u0000\u0000\u0000\u0000\u0000\u0000\u0000\u0000",
        "\u0000\u0000\u0000\u0000\u0000\u0000\u0000\u0000\u0000\u0000\u0000\u0000\u0000\u0000\u0000\u0000\u0000\u0000\u0000\u0000\u0000\u0000\u0000\u0000\u0000\u0000\u0000\u0000\u0000\u0000\u0000\u0000\u0000\u0000\u0000\u0000\u0000\u0000\u0000\u0000\u0000\u0000\u0000\u0000\u0000\u0000\u0000\u0000\u0000\u0000\u0000\u0000\u0000\u0000\u0000\u0000\u0000\u0000\u0000\u0000\u0000\u0000\u0000\u0000\u0000\u0000\u0000\u0000\u0000\u0000\u0000\u0000\u0000\u0000\u0000\u0000\u0000\u0000\u0000\u0000\u0000\u0000\u0000\u0000\u0000\u0000",
        "\u0000\u0000\u0000\u0000\u0000\u0000\u0000\u0000\u0000\u0000\u0000\u0000\u0000\u0000\u0000\u0000\u0000\u0000\u0000\u0000\u0000\u0000\u0000\u0000\u0000\u0000\u0000\u0000\u0000\u0000\u0000\u0000\u0000\u0000\u0000\u0000\u0000\u0000\u0000\u0000\u0000\u0000\u0000\u0000\u0000\u0000\u0000\u0000\u0000\u0000\u0000\u0000\u0000\u0000\u0000\u0000\u0000\u0000\u0000\u0000\u0000\u0000\u0000\u0000\u0000\u0000\u0000\u0000\u0000\u0000\u0000\u0000\u0000\u0000\u0000\u0000\u0000\u0000\u0000\u0000\u0000\u0000\u0000\u0000\u0000\u0000",
        "\u0000\u0000\u0000\u0000\u0000\u0000\u0000\u0000\u0000\u0000\u0000\u0000\u0000\u0000\u0000\u0000\u0000\u0000\u0000\u0000\u0000\u0000\u0000\u0000\u0000\u0000\u0000\u0000\u0000\u0000\u0000\u0000\u0000\u0000\u0000\u0000\u0000\u0000\u0000\u0000\u0000\u0000\u0000\u0000\u0000\u0000\u0000\u0000\u0000\u0000\u0000\u0000\u0000\u0000\u0000\u0000\u0000\u0000\u0000\u0000\u0000\u0000\u0000\u0000\u0000\u0000\u0000\u0000\u0000\u0000\u0000\u0000\u0000\u0000\u0000\u0000\u0000\u0000\u0000\u0000\u0000\u0000\u0000\u0000\u0000\u0000",
        "\u0000\u0000\u0000\u0000\u0000\u0000\u0000\u0000\u0000\u0000\u0000\u0000\u0000\u0000\u0000\u0000\u0000\u0000\u0000\u0000\u0000\u0000\u0000\u0000\u0000\u0000\u0000\u0000\u0000\u0000\u0000\u0000\u0000\u0000\u0000\u0000\u0000\u0000\u0000\u0000\u0000\u0000\u0000\u0000\u0000\u0000\u0000\u0000\u0000\u0000\u0000\u0000\u0000\u0000\u0000\u0000\u0000\u0000\u0000\u0000\u0000\u0000\u0000\u0000\u0000\u0000\u0000\u0000\u0000\u0000\u0000\u0000\u0000\u0000\u0000\u0000\u0000\u0000\u0000\u0000\u0000\u0000\u0000\u0000\u0000\u0000\u0000\u0000",
        "\u0000\u0000\u0000\u0000\u0000\u0000\u0000\u0000\u0000\u0000\u0000\u0000\u0000\u0000\u0000\u0000\u0000\u0000\u0000\u0000\u0000\u0000\u0000\u0000\u0000\u0000\u0000\u0000\u0000\u0000\u0000\u0000\u0000\u0000\u0000\u0000\u0000\u0000\u0000\u0000\u0000\u0000\u0000\u0000\u0000\u0000\u0000\u0000\u0000\u0000\u0000\u0000\u0000\u0000\u0000\u0000\u0000\u0000\u0000\u0000\u0000\u0000\u0000\u0000\u0000\u0000\u0000\u0000\u0000\u0000\u0000\u0000\u0000\u0000\u0000\u0000\u0000\u0000\u0000\u0000\u0000\u0000\u0000\u0000\u0000\u0000\u0000\u0000",
        "\u0000\u0000\u0000\u0000\u0000\u0000\u0000\u0000\u0000\u0000\u0000\u0000\u0000\u0000\u0000\u0000\u0000\u0000\u0000\u0000\u0000\u0000\u0000\u0000\u0000\u0000\u0000\u0000\u0000\u0000\u0000\u0000\u0000\u0000\u0000\u0000\u0000\u0000\u0000\u0000\u0000\u0000\u0000\u0000\u0000\u0000\u0000\u0000\u0000\u0000\u0000\u0000\u0000\u0000\u0000\u0000\u0000\u0000\u0000\u0000\u0000\u0000\u0000\u0000\u0000\u0000\u0000\u0000\u0000\u0000\u0000\u0000\u0000\u0000\u0000\u0000\u0000\u0000\u0000\u0000\u0000\u0000\u0000\u0000\u0000\u0000",
        "\u0000\u0000\u0000\u0000\u0000\u0000\u0000\u0000\u0000\u0000\u0000\u0000\u0000\u0000\u0000\u0000\u0000\u0000\u0000\u0000\u0000\u0000\u0000\u0000\u0000\u0000\u0000\u0000\u0000\u0000\u0000\u0000\u0000\u0000\u0000\u0000\u0000\u0000\u0000\u0000\u0000\u0000\u0000\u0000\u0000\u0000\u0000\u0000\u0000\u0000\u0000\u0000\u0000\u0000\u0000\u0000\u0000\u0000\u0000\u0000\u0000\u0000\u0000\u0000\u0000\u0000\u0000\u0000\u0000\u0000\u0000\u0000\u0000\u0000\u0000\u0000\u0000\u0000\u0000\u0000\u0000\u0000\u0000\u0000\u0000\u0000",
        "\u0000\u0000\u0000\u0000\u0000\u0000\u0000\u0000\u0000\u0000\u0000\u0000\u0000\u0000\u0000\u0000\u0000\u0000\u0000\u0000\u0000\u0000\u0000\u0000\u0000\u0000\u0000\u0000\u0000\u0000\u0000\u0000\u0000\u0000\u0000\u0000\u0000\u0000\u0000\u0000\u0000\u0000\u0000\u0000\u0000\u0000\u0000\u0000\u0000\u0000\u0000\u0000\u0000\u0000\u0000\u0000\u0000\u0000\u0000\u0000\u0000\u0000\u0000\u0000\u0000\u0000\u0000\u0000\u0000\u0000\u0000\u0000\u0000\u0000\u0000\u0000\u0000\u0000\u0000\u0000\u0000\u0000\u0000\u0000\u0000\u0000",
        "\u0000\u0000\u0000\u0000\u0000\u0000\u0000\u0000\u0000\u0000\u0000\u0000\u0000\u0000\u0000\u0000\u0000\u0000\u0000\u0000\u0000\u0000\u0000\u0000\u0000\u0000\u0000\u0000\u0000\u0000\u0000\u0000\u0000\u0000\u0000\u0000\u0000\u0000\u0000\u0000\u0000\u0000\u0000\u0000\u0000\u0000\u0000\u0000\u0000\u0000\u0000\u0000\u0000\u0000\u0000\u0000\u0000\u0000\u0000\u0000\u0000\u0000\u0000\u0000\u0000\u0000\u0000\u0000\u0000\u0000\u0000\u0000\u0000\u0000\u0000\u0000\u0000\u0000\u0000\u0000\u0000\u0000\u0000\u0000\u0000\u0000\u0000\u0000",
