{
  "AcquisitionMatrixPE": 110,
  "AcquisitionNumber": 1,
  "AcquisitionTime": "16:31:16.990000",
  "BandwidthPerPixelPhaseEncode": 26.35,
  "BaseResolution": 110,
  "CoilString": "C:HEA;HEP",
  "ConversionSoftware": "dcm2niix",
  "ConversionSoftwareVersion": "v1.0.20190410  GCC6.3.0",
  "DerivedVendorReportedEchoSpacing": 0.000690012,
  "DeviceSerialNumber": "35422",
  "DwellTime": 2.6e-06,
  "EchoTime": 0.03,
  "EffectiveEchoSpacing": 0.000345006,
  "FlipAngle": 85,
  "ImageComments": "Unaliased_MB4_PE4_LB",
  "ImageOrientationPatientDICOM": [0.999997, -0.000495351, -0.0023595, 1.87482e-10, 0.978665, -0.20546],
  "ImageType": [
    "ORIGINAL",
    "PRIMARY",
    "FMRI",
    "NONE",
    "MB",
    "ND",
    "MOSAIC"
],
  "ImagingFrequency": 123.178,
  "InPlanePhaseEncodingDirectionDICOM": "ROW",
  "InstitutionAddress": "kwanakro_599_C4F276_Seoul_KR_ZIP",
  "InstitutionName": "SNUBIC",
  "InstitutionalDepartmentName": "Department",
  "MRAcquisitionType": "2D",
  "MagneticFieldStrength": 3,
  "Manufacturer": "Siemens",
  "ManufacturersModelName": "TrioTim",
  "Modality": "MR",
  "MultibandAccelerationFactor": 4,
  "ParallelReductionFactorInPlane": 2,
  "PartialFourier": 1,
  "PatientPosition": "HFS",
  "PercentPhaseFOV": 100,
  "PhaseEncodingDirection": "i-",
  "PhaseEncodingSteps": 110,
  "PhaseResolution": 1,
  "PixelBandwidth": 1748,
  "ProcedureStepDescription": "SNU_SAVED",
  "ProtocolName": "WMGNG2_MB4_LR_SBRef",
  "PulseSequenceDetails": "%CustomerSeq%_cmrr_mbep2d_bold",
  "ReceiveCoilName": "32Ch_Head",
  "ReconMatrixPE": 110,
  "RefLinesPE": 32,
  "RepetitionTime": 1.5,
  "SAR": 0.116956,
  "ScanOptions": "FS",
  "ScanningSequence": "EP",
  "SequenceName": "epfid2d1_110",
  "SequenceVariant": "SK_SS",
  "SeriesDescription": "WMGNG2_MB4_LR_SBRef",
  "SeriesNumber": 8,
  "ShimSetting": [-4160, -29532, -2138, 636, -186, 691, -302, -26],
  "SliceThickness": 2.3,
  "SliceTiming": [0, 0.6575, 1.3175, 0.47, 1.1275, 0.2825, 0.94, 0.0925, 0.7525, 1.41, 0.565, 1.2225, 0.375, 1.035, 0.1875, 0.845, 0, 0.6575, 1.3175, 0.47, 1.1275, 0.2825, 0.94, 0.0925, 0.7525, 1.41, 0.565, 1.2225, 0.375, 1.035, 0.1875, 0.845, 0, 0.6575, 1.3175, 0.47, 1.1275, 0.2825, 0.94, 0.0925, 0.7525, 1.41, 0.565, 1.2225, 0.375, 1.035, 0.1875, 0.845, 0, 0.6575, 1.3175, 0.47, 1.1275, 0.2825, 0.94, 0.0925, 0.7525, 1.41, 0.565, 1.2225, 0.375, 1.035, 0.1875, 0.845],
  "SoftwareVersions": "syngo_MR_B17",
  "SpacingBetweenSlices": 2.3,
  "StationName": "MRC35422",
  "TaskName": "wmgng",
  "TotalReadoutTime": 0.0376057,
  "TxRefAmp": 315.727,
  "dcmmeta_affine": [
    [-2.327265977859497, 4.3632125690251655e-10, -0.005545143038034439, 134.1700897216797],
    [0.0011528169270604849, 2.277621269226074, -0.47255739569664, -111.63243103027344],
    [-0.005491189658641815, 0.4781621992588043, 2.2509241104125977, -82.19444274902344],
    [0.0, 0.0, 0.0, 1.0]
],
  "dcmmeta_reorient_transform": [
    [0.0, -1.0, 0.0, 109.0],
    [1.0, 0.0, 0.0, 0.0],
    [0.0, 0.0, 1.0, 0.0],
    [0.0, 0.0, 0.0, 1.0]
],
  "dcmmeta_shape": [110, 110, 64, 357],
  "dcmmeta_slice_dim": 2,
  "dcmmeta_version": 0.6,
  "global": {
    "const": {
      "AcquisitionMatrix": [0, 110, 110, 0],
      "AngioFlag": "N",
      "BitsAllocated": 16,
      "BitsStored": 12,
      "Columns": 880,
      "EchoNumbers": 1,
      "EchoTime": 30.0,
      "EchoTrainLength": 1,
      "FlipAngle": 85.0,
      "HighBit": 11,
      "ImageOrientationPatient": [0.99999709369981, -0.0004953510192, -0.0023594955602, 1.874818e-10, 0.97866544463875, -0.2054603306481],
      "ImagePositionPatient": [-1030.167463384, -1013.0686666942, 156.1317979721],
      "ImageType": [
        "ORIGINAL",
        "PRIMARY",
        "FMRI",
        "NONE",
        "MB",
        "ND",
        "MOSAIC"
],
      "ImagedNucleus": "1H",
      "ImagingFrequency": 123.17764,
      "InPlanePhaseEncodingDirection": "ROW",
      "MRAcquisitionType": "2D",
      "MagneticFieldStrength": 3.0,
      "Manufacturer": "SIEMENS",
      "ManufacturerModelName": "TrioTim",
      "Modality": "MR",
      "NumberOfAverages": 1.0,
      "NumberOfPhaseEncodingSteps": 110,
      "PercentPhaseFieldOfView": 100.0,
      "PercentSampling": 100.0,
      "PerformedProcedureStepStartTime": "161242.468000",
      "PhotometricInterpretation": "MONOCHROME2",
      "PixelBandwidth": 1748.0,
      "PixelRepresentation": 0,
      "PixelSpacing": [2.3272726535797, 2.3272726535797],
      "ProtocolName": "WMGNG2_MB4_LR_SBRef",
      "ReferencedPerformedProcedureStepSequence": [
        {
          "ReferencedSOPClassUID": "1.2.840.10008.3.1.2.3.3",
          "ReferencedSOPInstanceUID": "1.3.12.2.1107.5.2.32.35422.30000019122407124248400000000"}
],
      "RepetitionTime": 1500.0,
      "Rows": 880,
      "SAR": 0.1169559796688,
      "SamplesPerPixel": 1,
      "ScanOptions": "FS",
      "ScanningSequence": "EP",
      "SequenceName": "epfid2d1_110",
      "SequenceVariant": [
        "SK",
        "SS"
],
      "SeriesDescription": "WMGNG2_MB4_LR_SBRef",
      "SeriesNumber": 8,
      "SeriesTime": "163607.468000",
      "SliceLocation": -57.828130346244,
      "SliceThickness": 2.2999999523163,
      "SmallestImagePixelValue": 0,
      "SoftwareVersions": "syngo MR B17",
      "SpacingBetweenSlices": 2.3000000166519,
      "SpecificCharacterSet": "ISO_IR 100",
      "StudyID": "1",
      "StudyTime": "161242.281000",
      "TransmitCoilName": "Body",
      "VariableFlipAngleFlag": "N",
      "WindowCenterWidthExplanation": "Algo1",
      "dBdt": 0.0},
    "slices": {}
  },
  "time": {
    "samples": {
      "AcquisitionNumber": [1, 2, 3, 4, 5, 6, 7, 8, 9, 10, 11, 12, 13, 14, 15, 16, 17, 18, 19, 20, 21, 22, 23, 24, 25, 26, 27, 28, 29, 30, 31, 32, 33, 34, 35, 36, 37, 38, 39, 40, 41, 42, 43, 44, 45, 46, 47, 48, 49, 50, 51, 52, 53, 54, 55, 56, 57, 58, 59, 60, 61, 62, 63, 64, 65, 66, 67, 68, 69, 70, 71, 72, 73, 74, 75, 76, 77, 78, 79, 80, 81, 82, 83, 84, 85, 86, 87, 88, 89, 90, 91, 92, 93, 94, 95, 96, 97, 98, 99, 100, 101, 102, 103, 104, 105, 106, 107, 108, 109, 110, 111, 112, 113, 114, 115, 116, 117, 118, 119, 120, 121, 122, 123, 124, 125, 126, 127, 128, 129, 130, 131, 132, 133, 134, 135, 136, 137, 138, 139, 140, 141, 142, 143, 144, 145, 146, 147, 148, 149, 150, 151, 152, 153, 154, 155, 156, 157, 158, 159, 160, 161, 162, 163, 164, 165, 166, 167, 168, 169, 170, 171, 172, 173, 174, 175, 176, 177, 178, 179, 180, 181, 182, 183, 184, 185, 186, 187, 188, 189, 190, 191, 192, 193, 194, 195, 196, 197, 198, 199, 200, 201, 202, 203, 204, 205, 206, 207, 208, 209, 210, 211, 212, 213, 214, 215, 216, 217, 218, 219, 220, 221, 222, 223, 224, 225, 226, 227, 228, 229, 230, 231, 232, 233, 234, 235, 236, 237, 238, 239, 240, 241, 242, 243, 244, 245, 246, 247, 248, 249, 250, 251, 252, 253, 254, 255, 256, 257, 258, 259, 260, 261, 262, 263, 264, 265, 266, 267, 268, 269, 270, 271, 272, 273, 274, 275, 276, 277, 278, 279, 280, 281, 282, 283, 284, 285, 286, 287, 288, 289, 290, 291, 292, 293, 294, 295, 296, 297, 298, 299, 300, 301, 302, 303, 304, 305, 306, 307, 308, 309, 310, 311, 312, 313, 314, 315, 316, 317, 318, 319, 320, 321, 322, 323, 324, 325, 326, 327, 328, 329, 330, 331, 332, 333, 334, 335, 336, 337, 338, 339, 340, 341, 342, 343, 344, 345, 346, 347, 348, 349, 350, 351, 352, 353, 354, 355, 356, 357],
      "AcquisitionTime": ["163116.990000", "163118.495000", "163120.002500", "163121.507500", "163123.012500", "163124.520000", "163126.025000", "163127.532500", "163129.037500", "163130.542500", "163132.050000", "163133.555000", "163135.062500", "163136.567500", "163138.072500", "163139.580000", "163141.085000", "163142.592500", "163144.097500", "163145.602500", "163147.110000", "163148.615000", "163150.122500", "163151.627500", "163153.135000", "163154.640000", "163156.145000", "163157.652500", "163159.157500", "163200.665000", "163202.170000", "163203.675000", "163205.182500", "163206.687500", "163208.195000", "163209.700000", "163211.205000", "163212.712500", "163214.217500", "163215.725000", "163217.230000", "163218.735000", "163220.242500", "163221.747500", "163223.255000", "163224.760000", "163226.267500", "163227.772500", "163229.277500", "163230.785000", "163232.290000", "163233.797500", "163235.302500", "163236.807500", "163238.315000", "163239.820000", "163241.327500", "163242.832500", "163244.337500", "163245.845000", "163247.350000", "163248.857500", "163250.362500", "163251.867500", "163253.375000", "163254.880000", "163256.387500", "163257.892500", "163259.400000", "163300.905000", "163302.410000", "163303.917500", "163305.422500", "163306.930000", "163308.435000", "163309.940000", "163311.447500", "163312.952500", "163314.460000", "163315.965000", "163317.470000", "163318.977500", "163320.482500", "163321.990000", "163323.495000", "163325.002500", "163326.507500", "163328.012500", "163329.520000", "163331.025000", "163332.532500", "163334.037500", "163335.542500", "163337.050000", "163338.555000", "163340.062500", "163341.567500", "163343.072500", "163344.580000", "163346.085000", "163347.592500", "163349.097500", "163350.602500", "163352.110000", "163353.615000", "163355.122500", "163356.627500", "163358.135000", "163359.640000", "163401.145000", "163402.652500", "163404.157500", "163405.665000", "163407.170000", "163408.675000", "163410.182500", "163411.687500", "163413.195000", "163414.700000", "163416.205000", "163417.712500", "163419.217500", "163420.725000", "163422.230000", "163423.735000", "163425.242500", "163426.747500", "163428.255000", "163429.760000", "163431.267500", "163432.772500", "163434.277500", "163435.785000", "163437.290000", "163438.797500", "163440.302500", "163441.807500", "163443.315000", "163444.820000", "163446.327500", "163447.832500", "163449.337500", "163450.845000", "163452.350000", "163453.857500", "163455.362500", "163456.867500", "163458.375000", "163459.880000", "163501.387500", "163502.892500", "163504.400000", "163505.905000", "163507.410000", "163508.917500", "163510.422500", "163511.930000", "163513.435000", "163514.940000", "163516.447500", "163517.952500", "163519.460000", "163520.965000", "163522.470000", "163523.977500", "163525.482500", "163526.990000", "163528.495000", "163530.002500", "163531.507500", "163533.012500", "163534.520000", "163536.025000", "163537.532500", "163539.037500", "163540.542500", "163542.050000", "163543.555000", "163545.062500", "163546.567500", "163548.072500", "163549.580000", "163551.085000", "163552.592500", "163554.097500", "163555.602500", "163557.110000", "163558.615000", "163600.122500", "163601.627500", "163603.135000", "163604.640000", "163606.145000", "163607.652500", "163609.157500", "163610.665000", "163612.170000", "163613.675000", "163615.182500", "163616.687500", "163618.195000", "163619.700000", "163621.205000", "163622.712500", "163624.217500", "163625.725000", "163627.230000", "163628.735000", "163630.242500", "163631.747500", "163633.255000", "163634.760000", "163636.267500", "163637.772500", "163639.277500", "163640.785000", "163642.290000", "163643.797500", "163645.302500", "163646.807500", "163648.315000", "163649.820000", "163651.327500", "163652.832500", "163654.337500", "163655.845000", "163657.350000", "163658.857500", "163700.362500", "163701.867500", "163703.375000", "163704.880000", "163706.387500", "163707.892500", "163709.400000", "163710.905000", "163712.410000", "163713.917500", "163715.422500", "163716.930000", "163718.435000", "163719.940000", "163721.447500", "163722.952500", "163724.460000", "163725.965000", "163727.470000", "163728.977500", "163730.482500", "163731.990000", "163733.495000", "163735.002500", "163736.507500", "163738.012500", "163739.520000", "163741.025000", "163742.532500", "163744.037500", "163745.542500", "163747.050000", "163748.555000", "163750.062500", "163751.567500", "163753.072500", "163754.580000", "163756.085000", "163757.592500", "163759.097500", "163800.602500", "163802.110000", "163803.615000", "163805.122500", "163806.627500", "163808.135000", "163809.640000", "163811.145000", "163812.652500", "163814.157500", "163815.665000", "163817.170000", "163818.675000", "163820.182500", "163821.687500", "163823.195000", "163824.700000", "163826.205000", "163827.712500", "163829.217500", "163830.725000", "163832.230000", "163833.735000", "163835.242500", "163836.747500", "163838.255000", "163839.760000", "163841.267500", "163842.772500", "163844.277500", "163845.785000", "163847.290000", "163848.797500", "163850.302500", "163851.807500", "163853.315000", "163854.820000", "163856.327500", "163857.832500", "163859.337500", "163900.845000", "163902.350000", "163903.857500", "163905.362500", "163906.867500", "163908.375000", "163909.880000", "163911.387500", "163912.892500", "163914.400000", "163915.905000", "163917.410000", "163918.917500", "163920.422500", "163921.930000", "163923.435000", "163924.940000", "163926.447500", "163927.952500", "163929.460000", "163930.965000", "163932.470000", "163933.977500", "163935.482500", "163936.990000", "163938.495000", "163940.002500", "163941.507500", "163943.012500", "163944.520000", "163946.025000", "163947.532500", "163949.037500", "163950.542500", "163952.050000", "163953.555000", "163955.062500", "163956.567500", "163958.072500", "163959.580000", "164001.085000", "164002.592500", "164004.097500", "164005.602500", "164007.110000", "164008.615000", "164010.122500", "164011.627500", "164013.135000"],
      "ContentTime": ["163607.468000", "163607.468000", "163707.468000", "163707.468000", "163707.468000", "163707.468000", "163707.484000", "163707.484000", "163707.484000", "163707.484000", "163707.484000", "163707.484000", "163707.484000", "163707.484000", "163707.484000", "163707.500000", "163707.500000", "163707.500000", "163707.500000", "163707.500000", "163707.500000", "163707.515000", "163707.515000", "163707.515000", "163707.515000", "163707.515000", "163707.515000", "163707.515000", "163807.468000", "163807.468000", "163807.468000", "163807.468000", "163807.484000", "163807.484000", "163807.484000", "163807.484000", "163807.484000", "163807.484000", "163807.484000", "163807.484000", "163807.500000", "163807.500000", "163807.500000", "163807.500000", "163807.515000", "163807.515000", "163807.515000", "163807.515000", "163807.515000", "163807.515000", "163807.531000", "163807.531000", "163807.531000", "163807.531000", "163907.468000", "163907.468000", "163907.468000", "163907.468000", "163907.484000", "163907.484000", "163907.484000", "163907.484000", "163907.484000", "163907.484000", "163907.484000", "163907.484000", "163907.500000", "163907.500000", "163907.500000", "163907.500000", "163907.500000", "163907.500000", "163907.515000", "163907.515000", "163907.515000", "163907.515000", "163907.515000", "163907.515000", "163907.515000", "163907.515000", "163907.515000", "164007.468000", "164007.468000", "164007.484000", "164007.484000", "164007.484000", "164007.484000", "164007.500000", "164007.500000", "164007.500000", "164007.500000", "164007.500000", "164007.515000", "164007.515000", "164007.515000", "164007.515000", "164007.515000", "164007.515000", "164007.515000", "164007.515000", "164007.515000", "164007.531000", "164007.531000", "164007.531000", "164007.531000", "164007.531000", "164007.531000", "164107.468000", "164107.468000", "164107.468000", "164107.468000", "164107.484000", "164107.484000", "164107.484000", "164107.484000", "164107.500000", "164107.500000", "164107.500000", "164107.500000", "164107.500000", "164107.500000", "164107.500000", "164107.515000", "164107.515000", "164107.515000", "164107.515000", "164107.515000", "164107.515000", "164107.515000", "164107.515000", "164107.515000", "164107.531000", "164107.531000", "164207.468000", "164207.468000", "164207.468000", "164207.468000", "164207.468000", "164207.484000", "164207.484000", "164207.484000", "164207.484000", "164207.484000", "164207.484000", "164207.500000", "164207.500000", "164207.500000", "164207.500000", "164207.500000", "164207.500000", "164207.515000", "164207.515000", "164207.515000", "164207.515000", "164207.515000", "164207.515000", "164207.515000", "164207.515000", "164207.515000", "164307.468000", "164307.468000", "164307.468000", "164307.468000", "164307.484000", "164307.484000", "164307.484000", "164307.484000", "164307.484000", "164307.484000", "164307.484000", "164307.484000", "164307.484000", "164307.500000", "164307.500000", "164307.500000", "164307.500000", "164307.500000", "164307.515000", "164307.515000", "164307.515000", "164307.515000", "164307.515000", "164307.515000", "164307.515000", "164307.515000", "164407.468000", "164407.484000", "164407.484000", "164407.484000", "164407.484000", "164407.484000", "164407.500000", "164407.500000", "164407.500000", "164407.500000", "164407.515000", "164407.515000", "164407.515000", "164407.515000", "164407.515000", "164407.515000", "164407.531000", "164407.531000", "164407.531000", "164407.531000", "164407.531000", "164407.546000", "164407.546000", "164407.546000", "164407.546000", "164407.546000", "164507.468000", "164507.468000", "164507.468000", "164507.468000", "164507.484000", "164507.484000", "164507.484000", "164507.484000", "164507.484000", "164507.484000", "164507.484000", "164507.484000", "164507.484000", "164507.500000", "164507.500000", "164507.500000", "164507.500000", "164507.515000", "164507.515000", "164507.515000", "164507.515000", "164507.515000", "164507.515000", "164507.515000", "164507.515000", "164507.515000", "164547.468000", "164547.468000", "164547.468000", "164547.484000", "164547.484000", "164547.484000", "164547.484000", "164547.484000", "164547.484000", "164547.500000", "164547.500000", "164547.500000", "164547.500000", "164547.500000", "164547.500000", "164547.500000", "164547.515000", "164647.468000", "164647.468000", "164647.468000", "164647.468000", "164647.484000", "164647.484000", "164647.484000", "164647.484000", "164647.484000", "164647.500000", "164647.500000", "164647.500000", "164647.500000", "164647.500000", "164647.500000", "164647.500000", "164647.500000", "164647.515000", "164647.515000", "164647.515000", "164647.515000", "164647.515000", "164647.515000", "164647.515000", "164647.515000", "164647.515000", "164647.531000", "164747.468000", "164747.468000", "164747.468000", "164747.468000", "164747.484000", "164747.484000", "164747.484000", "164747.484000", "164747.484000", "164747.484000", "164747.500000", "164747.500000", "164747.500000", "164747.500000", "164747.500000", "164747.500000", "164747.500000", "164747.500000", "164747.500000", "164747.515000", "164747.515000", "164747.515000", "164747.515000", "164747.515000", "164747.515000", "164747.515000", "164847.468000", "164847.468000", "164847.468000", "164847.468000", "164847.484000", "164847.484000", "164847.484000", "164847.484000", "164847.484000", "164847.484000", "164847.484000", "164847.484000", "164847.500000", "164847.500000", "164847.500000", "164847.500000", "164847.500000", "164847.500000", "164847.500000", "164847.500000", "164847.500000", "164847.515000", "164847.515000", "164847.515000", "164847.515000", "164847.515000", "164942.109000", "164942.109000", "164942.109000", "164942.109000", "164942.109000", "164942.109000", "164942.109000", "164942.109000", "164942.125000", "164942.125000", "164942.125000", "164942.125000", "164942.125000", "164942.125000", "164942.125000", "164942.125000", "164942.125000", "164942.140000", "164942.140000", "164942.140000", "164942.140000", "164942.140000", "164942.140000", "164942.140000"],
      "DataSetTrailingPadding": [
        "\u0000\u0000\u0000\u0000\u0000\u0000\u0000\u0000\u0000\u0000\u0000\u0000\u0000\u0000\u0000\u0000\u0000\u0000\u0000\u0000\u0000\u0000\u0000\u0000\u0000\u0000\u0000\u0000\u0000\u0000\u0000\u0000\u0000\u0000\u0000\u0000\u0000\u0000\u0000\u0000\u0000\u0000\u0000\u0000\u0000\u0000\u0000\u0000\u0000\u0000\u0000\u0000\u0000\u0000\u0000\u0000\u0000\u0000\u0000\u0000\u0000\u0000\u0000\u0000\u0000\u0000\u0000\u0000",
        "\u0000\u0000\u0000\u0000\u0000\u0000\u0000\u0000\u0000\u0000\u0000\u0000\u0000\u0000\u0000\u0000\u0000\u0000\u0000\u0000\u0000\u0000\u0000\u0000\u0000\u0000\u0000\u0000\u0000\u0000\u0000\u0000\u0000\u0000\u0000\u0000\u0000\u0000\u0000\u0000\u0000\u0000\u0000\u0000\u0000\u0000\u0000\u0000\u0000\u0000\u0000\u0000\u0000\u0000\u0000\u0000\u0000\u0000\u0000\u0000\u0000\u0000\u0000\u0000\u0000\u0000",
        "\u0000\u0000\u0000\u0000\u0000\u0000\u0000\u0000\u0000\u0000\u0000\u0000\u0000\u0000\u0000\u0000\u0000\u0000\u0000\u0000\u0000\u0000\u0000\u0000\u0000\u0000\u0000\u0000\u0000\u0000\u0000\u0000\u0000\u0000\u0000\u0000\u0000\u0000\u0000\u0000\u0000\u0000\u0000\u0000\u0000\u0000\u0000\u0000\u0000\u0000\u0000\u0000\u0000\u0000\u0000\u0000\u0000\u0000\u0000\u0000\u0000\u0000\u0000\u0000\u0000\u0000\u0000\u0000",
        "\u0000\u0000\u0000\u0000\u0000\u0000\u0000\u0000\u0000\u0000\u0000\u0000\u0000\u0000\u0000\u0000\u0000\u0000\u0000\u0000\u0000\u0000\u0000\u0000\u0000\u0000\u0000\u0000\u0000\u0000\u0000\u0000\u0000\u0000\u0000\u0000\u0000\u0000\u0000\u0000\u0000\u0000\u0000\u0000\u0000\u0000\u0000\u0000\u0000\u0000\u0000\u0000\u0000\u0000\u0000\u0000\u0000\u0000\u0000\u0000\u0000\u0000\u0000\u0000\u0000\u0000\u0000\u0000",
        "\u0000\u0000\u0000\u0000\u0000\u0000\u0000\u0000\u0000\u0000\u0000\u0000\u0000\u0000\u0000\u0000\u0000\u0000\u0000\u0000\u0000\u0000\u0000\u0000\u0000\u0000\u0000\u0000\u0000\u0000\u0000\u0000\u0000\u0000\u0000\u0000\u0000\u0000\u0000\u0000\u0000\u0000\u0000\u0000\u0000\u0000\u0000\u0000\u0000\u0000\u0000\u0000\u0000\u0000\u0000\u0000\u0000\u0000\u0000\u0000\u0000\u0000\u0000\u0000\u0000\u0000\u0000\u0000",
        "\u0000\u0000\u0000\u0000\u0000\u0000\u0000\u0000\u0000\u0000\u0000\u0000\u0000\u0000\u0000\u0000\u0000\u0000\u0000\u0000\u0000\u0000\u0000\u0000\u0000\u0000\u0000\u0000\u0000\u0000\u0000\u0000\u0000\u0000\u0000\u0000\u0000\u0000\u0000\u0000\u0000\u0000\u0000\u0000\u0000\u0000\u0000\u0000\u0000\u0000\u0000\u0000\u0000\u0000\u0000\u0000\u0000\u0000\u0000\u0000\u0000\u0000\u0000\u0000\u0000\u0000\u0000\u0000",
        "\u0000\u0000\u0000\u0000\u0000\u0000\u0000\u0000\u0000\u0000\u0000\u0000\u0000\u0000\u0000\u0000\u0000\u0000\u0000\u0000\u0000\u0000\u0000\u0000\u0000\u0000\u0000\u0000\u0000\u0000\u0000\u0000\u0000\u0000\u0000\u0000\u0000\u0000\u0000\u0000\u0000\u0000\u0000\u0000\u0000\u0000\u0000\u0000\u0000\u0000\u0000\u0000\u0000\u0000\u0000\u0000\u0000\u0000\u0000\u0000\u0000\u0000\u0000\u0000\u0000\u0000",
        "\u0000\u0000\u0000\u0000\u0000\u0000\u0000\u0000\u0000\u0000\u0000\u0000\u0000\u0000\u0000\u0000\u0000\u0000\u0000\u0000\u0000\u0000\u0000\u0000\u0000\u0000\u0000\u0000\u0000\u0000\u0000\u0000\u0000\u0000\u0000\u0000\u0000\u0000\u0000\u0000\u0000\u0000\u0000\u0000\u0000\u0000\u0000\u0000\u0000\u0000\u0000\u0000\u0000\u0000\u0000\u0000\u0000\u0000\u0000\u0000\u0000\u0000\u0000\u0000\u0000\u0000",
        "\u0000\u0000\u0000\u0000\u0000\u0000\u0000\u0000\u0000\u0000\u0000\u0000\u0000\u0000\u0000\u0000\u0000\u0000\u0000\u0000\u0000\u0000\u0000\u0000\u0000\u0000\u0000\u0000\u0000\u0000\u0000\u0000\u0000\u0000\u0000\u0000\u0000\u0000\u0000\u0000\u0000\u0000\u0000\u0000\u0000\u0000\u0000\u0000\u0000\u0000\u0000\u0000\u0000\u0000\u0000\u0000\u0000\u0000\u0000\u0000\u0000\u0000\u0000\u0000\u0000\u0000\u0000\u0000",
        "\u0000\u0000\u0000\u0000\u0000\u0000\u0000\u0000\u0000\u0000\u0000\u0000\u0000\u0000\u0000\u0000\u0000\u0000\u0000\u0000\u0000\u0000\u0000\u0000\u0000\u0000\u0000\u0000\u0000\u0000\u0000\u0000\u0000\u0000\u0000\u0000\u0000\u0000\u0000\u0000\u0000\u0000\u0000\u0000\u0000\u0000\u0000\u0000\u0000\u0000\u0000\u0000\u0000\u0000\u0000\u0000\u0000\u0000\u0000\u0000\u0000\u0000\u0000\u0000",
        "\u0000\u0000\u0000\u0000\u0000\u0000\u0000\u0000\u0000\u0000\u0000\u0000\u0000\u0000\u0000\u0000\u0000\u0000\u0000\u0000\u0000\u0000\u0000\u0000\u0000\u0000\u0000\u0000\u0000\u0000\u0000\u0000\u0000\u0000\u0000\u0000\u0000\u0000\u0000\u0000\u0000\u0000\u0000\u0000\u0000\u0000\u0000\u0000\u0000\u0000\u0000\u0000\u0000\u0000\u0000\u0000\u0000\u0000\u0000\u0000\u0000\u0000\u0000\u0000",
        "\u0000\u0000\u0000\u0000\u0000\u0000\u0000\u0000\u0000\u0000\u0000\u0000\u0000\u0000\u0000\u0000\u0000\u0000\u0000\u0000\u0000\u0000\u0000\u0000\u0000\u0000\u0000\u0000\u0000\u0000\u0000\u0000\u0000\u0000\u0000\u0000\u0000\u0000\u0000\u0000\u0000\u0000\u0000\u0000\u0000\u0000\u0000\u0000\u0000\u0000\u0000\u0000\u0000\u0000\u0000\u0000\u0000\u0000\u0000\u0000\u0000\u0000",
        "\u0000\u0000\u0000\u0000\u0000\u0000\u0000\u0000\u0000\u0000\u0000\u0000\u0000\u0000\u0000\u0000\u0000\u0000\u0000\u0000\u0000\u0000\u0000\u0000\u0000\u0000\u0000\u0000\u0000\u0000\u0000\u0000\u0000\u0000\u0000\u0000\u0000\u0000\u0000\u0000\u0000\u0000\u0000\u0000\u0000\u0000\u0000\u0000\u0000\u0000\u0000\u0000\u0000\u0000\u0000\u0000\u0000\u0000\u0000\u0000\u0000\u0000",
        "\u0000\u0000\u0000\u0000\u0000\u0000\u0000\u0000\u0000\u0000\u0000\u0000\u0000\u0000\u0000\u0000\u0000\u0000\u0000\u0000\u0000\u0000\u0000\u0000\u0000\u0000\u0000\u0000\u0000\u0000\u0000\u0000\u0000\u0000\u0000\u0000\u0000\u0000\u0000\u0000\u0000\u0000\u0000\u0000\u0000\u0000\u0000\u0000\u0000\u0000\u0000\u0000\u0000\u0000\u0000\u0000\u0000\u0000\u0000\u0000\u0000\u0000\u0000\u0000",
        "\u0000\u0000\u0000\u0000\u0000\u0000\u0000\u0000\u0000\u0000\u0000\u0000\u0000\u0000\u0000\u0000\u0000\u0000\u0000\u0000\u0000\u0000\u0000\u0000\u0000\u0000\u0000\u0000\u0000\u0000\u0000\u0000\u0000\u0000\u0000\u0000\u0000\u0000\u0000\u0000\u0000\u0000\u0000\u0000\u0000\u0000\u0000\u0000\u0000\u0000\u0000\u0000\u0000\u0000\u0000\u0000\u0000\u0000\u0000\u0000\u0000\u0000\u0000\u0000",
        "\u0000\u0000\u0000\u0000\u0000\u0000\u0000\u0000\u0000\u0000\u0000\u0000\u0000\u0000\u0000\u0000\u0000\u0000\u0000\u0000\u0000\u0000\u0000\u0000\u0000\u0000\u0000\u0000\u0000\u0000\u0000\u0000\u0000\u0000\u0000\u0000\u0000\u0000\u0000\u0000\u0000\u0000\u0000\u0000\u0000\u0000\u0000\u0000\u0000\u0000\u0000\u0000\u0000\u0000\u0000\u0000\u0000\u0000\u0000\u0000\u0000\u0000\u0000\u0000",
        "\u0000\u0000\u0000\u0000\u0000\u0000\u0000\u0000\u0000\u0000\u0000\u0000\u0000\u0000\u0000\u0000\u0000\u0000\u0000\u0000\u0000\u0000\u0000\u0000\u0000\u0000\u0000\u0000\u0000\u0000\u0000\u0000\u0000\u0000\u0000\u0000\u0000\u0000\u0000\u0000\u0000\u0000\u0000\u0000\u0000\u0000\u0000\u0000\u0000\u0000\u0000\u0000\u0000\u0000\u0000\u0000\u0000\u0000\u0000\u0000\u0000\u0000",
        "\u0000\u0000\u0000\u0000\u0000\u0000\u0000\u0000\u0000\u0000\u0000\u0000\u0000\u0000\u0000\u0000\u0000\u0000\u0000\u0000\u0000\u0000\u0000\u0000\u0000\u0000\u0000\u0000\u0000\u0000\u0000\u0000\u0000\u0000\u0000\u0000\u0000\u0000\u0000\u0000\u0000\u0000\u0000\u0000\u0000\u0000\u0000\u0000\u0000\u0000\u0000\u0000\u0000\u0000\u0000\u0000\u0000\u0000\u0000\u0000\u0000\u0000",
        "\u0000\u0000\u0000\u0000\u0000\u0000\u0000\u0000\u0000\u0000\u0000\u0000\u0000\u0000\u0000\u0000\u0000\u0000\u0000\u0000\u0000\u0000\u0000\u0000\u0000\u0000\u0000\u0000\u0000\u0000\u0000\u0000\u0000\u0000\u0000\u0000\u0000\u0000\u0000\u0000\u0000\u0000\u0000\u0000\u0000\u0000\u0000\u0000\u0000\u0000\u0000\u0000\u0000\u0000\u0000\u0000\u0000\u0000\u0000\u0000\u0000\u0000\u0000\u0000",
        "\u0000\u0000\u0000\u0000\u0000\u0000\u0000\u0000\u0000\u0000\u0000\u0000\u0000\u0000\u0000\u0000\u0000\u0000\u0000\u0000\u0000\u0000\u0000\u0000\u0000\u0000\u0000\u0000\u0000\u0000\u0000\u0000\u0000\u0000\u0000\u0000\u0000\u0000\u0000\u0000\u0000\u0000\u0000\u0000\u0000\u0000\u0000\u0000\u0000\u0000\u0000\u0000\u0000\u0000\u0000\u0000\u0000\u0000\u0000\u0000\u0000\u0000\u0000\u0000",
        "\u0000\u0000\u0000\u0000\u0000\u0000\u0000\u0000\u0000\u0000\u0000\u0000\u0000\u0000\u0000\u0000\u0000\u0000\u0000\u0000\u0000\u0000\u0000\u0000\u0000\u0000\u0000\u0000\u0000\u0000\u0000\u0000\u0000\u0000\u0000\u0000\u0000\u0000\u0000\u0000\u0000\u0000\u0000\u0000\u0000\u0000\u0000\u0000\u0000\u0000\u0000\u0000\u0000\u0000\u0000\u0000\u0000\u0000\u0000\u0000\u0000\u0000",
        "\u0000\u0000\u0000\u0000\u0000\u0000\u0000\u0000\u0000\u0000\u0000\u0000\u0000\u0000\u0000\u0000\u0000\u0000\u0000\u0000\u0000\u0000\u0000\u0000\u0000\u0000\u0000\u0000\u0000\u0000\u0000\u0000\u0000\u0000\u0000\u0000\u0000\u0000\u0000\u0000\u0000\u0000\u0000\u0000\u0000\u0000\u0000\u0000\u0000\u0000\u0000\u0000\u0000\u0000\u0000\u0000\u0000\u0000\u0000\u0000\u0000\u0000",
        "\u0000\u0000\u0000\u0000\u0000\u0000\u0000\u0000\u0000\u0000\u0000\u0000\u0000\u0000\u0000\u0000\u0000\u0000\u0000\u0000\u0000\u0000\u0000\u0000\u0000\u0000\u0000\u0000\u0000\u0000\u0000\u0000\u0000\u0000\u0000\u0000\u0000\u0000\u0000\u0000\u0000\u0000\u0000\u0000\u0000\u0000\u0000\u0000\u0000\u0000\u0000\u0000\u0000\u0000\u0000\u0000\u0000\u0000\u0000\u0000\u0000\u0000",
        "\u0000\u0000\u0000\u0000\u0000\u0000\u0000\u0000\u0000\u0000\u0000\u0000\u0000\u0000\u0000\u0000\u0000\u0000\u0000\u0000\u0000\u0000\u0000\u0000\u0000\u0000\u0000\u0000\u0000\u0000\u0000\u0000\u0000\u0000\u0000\u0000\u0000\u0000\u0000\u0000\u0000\u0000\u0000\u0000\u0000\u0000\u0000\u0000\u0000\u0000\u0000\u0000\u0000\u0000\u0000\u0000\u0000\u0000\u0000\u0000\u0000\u0000\u0000\u0000",
        "\u0000\u0000\u0000\u0000\u0000\u0000\u0000\u0000\u0000\u0000\u0000\u0000\u0000\u0000\u0000\u0000\u0000\u0000\u0000\u0000\u0000\u0000\u0000\u0000\u0000\u0000\u0000\u0000\u0000\u0000\u0000\u0000\u0000\u0000\u0000\u0000\u0000\u0000\u0000\u0000\u0000\u0000\u0000\u0000\u0000\u0000\u0000\u0000\u0000\u0000\u0000\u0000\u0000\u0000\u0000\u0000\u0000\u0000\u0000\u0000\u0000\u0000\u0000\u0000\u0000\u0000\u0000\u0000\u0000\u0000",
        "\u0000\u0000\u0000\u0000\u0000\u0000\u0000\u0000\u0000\u0000\u0000\u0000\u0000\u0000\u0000\u0000\u0000\u0000\u0000\u0000\u0000\u0000\u0000\u0000\u0000\u0000\u0000\u0000\u0000\u0000\u0000\u0000\u0000\u0000\u0000\u0000\u0000\u0000\u0000\u0000\u0000\u0000\u0000\u0000\u0000\u0000\u0000\u0000\u0000\u0000\u0000\u0000\u0000\u0000\u0000\u0000\u0000\u0000\u0000\u0000\u0000\u0000",
