{
  "AcquisitionMatrixPE": 110,
  "AcquisitionNumber": 1,
  "AcquisitionTime": "12:10:38.782500",
  "BandwidthPerPixelPhaseEncode": 26.35,
  "BaseResolution": 110,
  "CoilString": "C:HEA;HEP",
  "ConversionSoftware": "dcm2niix",
  "ConversionSoftwareVersion": "v1.0.20190410  GCC6.3.0",
  "DerivedVendorReportedEchoSpacing": 0.000690012,
  "DeviceSerialNumber": "35422",
  "DwellTime": 2.6e-06,
  "EchoTime": 0.03,
  "EffectiveEchoSpacing": 0.000345006,
  "FlipAngle": 85,
  "ImageComments": "Unaliased_MB4_PE4_LB",
  "ImageOrientationPatientDICOM": [0.999997, -0.000540556, -0.00234955, 2.10589e-10, 0.974541, -0.22421],
  "ImageType": [
    "ORIGINAL",
    "PRIMARY",
    "FMRI",
    "NONE",
    "MB",
    "ND",
    "MOSAIC"
],
  "ImagingFrequency": 123.178,
  "InPlanePhaseEncodingDirectionDICOM": "ROW",
  "InstitutionAddress": "kwanakro_599_C4F276_Seoul_KR_ZIP",
  "InstitutionName": "SNUBIC",
  "InstitutionalDepartmentName": "Department",
  "MRAcquisitionType": "2D",
  "MagneticFieldStrength": 3,
  "Manufacturer": "Siemens",
  "ManufacturersModelName": "TrioTim",
  "Modality": "MR",
  "MultibandAccelerationFactor": 4,
  "ParallelReductionFactorInPlane": 2,
  "PartialFourier": 1,
  "PatientPosition": "HFS",
  "PercentPhaseFOV": 100,
  "PhaseEncodingDirection": "i-",
  "PhaseEncodingSteps": 110,
  "PhaseResolution": 1,
  "PixelBandwidth": 1748,
  "ProcedureStepDescription": "SNU_SAVED",
  "ProtocolName": "WMGNG2_MB4_LR_SBRef",
  "PulseSequenceDetails": "%CustomerSeq%_cmrr_mbep2d_bold",
  "ReceiveCoilName": "32Ch_Head",
  "ReconMatrixPE": 110,
  "RefLinesPE": 32,
  "RepetitionTime": 1.5,
  "SAR": 0.108215,
  "ScanOptions": "FS",
  "ScanningSequence": "EP",
  "SequenceName": "epfid2d1_110",
  "SequenceVariant": "SK_SS",
  "SeriesDescription": "WMGNG2_MB4_LR_SBRef",
  "SeriesNumber": 8,
  "ShimSetting": [-4184, -29680, -2310, 407, -248, -47, -589, -105],
  "SliceThickness": 2.3,
  "SliceTiming": [0, 0.6575, 1.3175, 0.47, 1.13, 0.2825, 0.94, 0.095, 0.7525, 1.4125, 0.565, 1.2225, 0.3775, 1.035, 0.1875, 0.8475, 0, 0.6575, 1.3175, 0.47, 1.13, 0.2825, 0.94, 0.095, 0.7525, 1.4125, 0.565, 1.2225, 0.3775, 1.035, 0.1875, 0.8475, 0, 0.6575, 1.3175, 0.47, 1.13, 0.2825, 0.94, 0.095, 0.7525, 1.4125, 0.565, 1.2225, 0.3775, 1.035, 0.1875, 0.8475, 0, 0.6575, 1.3175, 0.47, 1.13, 0.2825, 0.94, 0.095, 0.7525, 1.4125, 0.565, 1.2225, 0.3775, 1.035, 0.1875, 0.8475],
  "SoftwareVersions": "syngo_MR_B17",
  "SpacingBetweenSlices": 2.3,
  "StationName": "MRC35422",
  "TaskName": "wmgng",
  "TotalReadoutTime": 0.0376057,
  "TxRefAmp": 298.545,
  "dcmmeta_affine": [
    [-2.327265977859497, 4.900975736354951e-10, -0.005545143038034439, 131.12123107910156],
    [0.0012580212205648422, 2.268022060394287, -0.5156822800636292, -101.70569610595703],
    [-0.0054680462926626205, 0.5217986106872559, 2.2414374351501465, -77.08848571777344],
    [0.0, 0.0, 0.0, 1.0]
],
  "dcmmeta_reorient_transform": [
    [0.0, -1.0, 0.0, 109.0],
    [1.0, 0.0, 0.0, 0.0],
    [0.0, 0.0, 1.0, 0.0],
    [0.0, 0.0, 0.0, 1.0]
],
  "dcmmeta_shape": [110, 110, 64, 357],
  "dcmmeta_slice_dim": 2,
  "dcmmeta_version": 0.6,
  "global": {
    "const": {
      "AcquisitionMatrix": [0, 110, 110, 0],
      "AngioFlag": "N",
      "BitsAllocated": 16,
      "BitsStored": 12,
      "Columns": 880,
      "EchoNumbers": 1,
      "EchoTime": 30.0,
      "EchoTrainLength": 1,
      "FlipAngle": 85.0,
      "HighBit": 11,
      "ImageOrientationPatient": [0.99999709370008, -0.0005405559997, -0.0023495511493, 2.105888e-10, 0.97454077653638, -0.22421033622],
      "ImagePositionPatient": [-1027.1185985665, -1018.2128813357, 182.78521633729],
      "ImageType": [
        "ORIGINAL",
        "PRIMARY",
        "FMRI",
        "NONE",
        "MB",
        "ND",
        "MOSAIC"
],
      "ImagedNucleus": "1H",
      "ImagingFrequency": 123.177513,
      "InPlanePhaseEncodingDirection": "ROW",
      "MRAcquisitionType": "2D",
      "MagneticFieldStrength": 3.0,
      "Manufacturer": "SIEMENS",
      "ManufacturerModelName": "TrioTim",
      "Modality": "MR",
      "NumberOfAverages": 1.0,
      "NumberOfPhaseEncodingSteps": 110,
      "PercentPhaseFieldOfView": 100.0,
      "PercentSampling": 100.0,
      "PerformedProcedureStepStartTime": "115238.218000",
      "PhotometricInterpretation": "MONOCHROME2",
      "PixelBandwidth": 1748.0,
      "PixelRepresentation": 0,
      "PixelSpacing": [2.3272726535797, 2.3272726535797],
      "ProtocolName": "WMGNG2_MB4_LR_SBRef",
      "ReferencedPerformedProcedureStepSequence": [
        {
          "ReferencedSOPClassUID": "1.2.840.10008.3.1.2.3.3",
          "ReferencedSOPInstanceUID": "1.3.12.2.1107.5.2.32.35422.30000020020800231482800000001"}
],
      "RepetitionTime": 1500.0,
      "Rows": 880,
      "SAR": 0.1082153822921,
      "SamplesPerPixel": 1,
      "ScanOptions": "FS",
      "ScanningSequence": "EP",
      "SequenceName": "epfid2d1_110",
      "SequenceVariant": [
        "SK",
        "SS"
],
      "SeriesDescription": "WMGNG2_MB4_LR_SBRef",
      "SeriesNumber": 8,
      "SeriesTime": "121625.265000",
      "SliceLocation": -52.638372743552,
      "SliceThickness": 2.2999999523163,
      "SmallestImagePixelValue": 0,
      "SoftwareVersions": "syngo MR B17",
      "SpacingBetweenSlices": 2.3000000580293,
      "SpecificCharacterSet": "ISO_IR 100",
      "StudyID": "1",
      "StudyTime": "115238.171000",
      "TransmitCoilName": "Body",
      "VariableFlipAngleFlag": "N",
      "WindowCenterWidthExplanation": "Algo1",
      "dBdt": 0.0},
    "slices": {}
  },
  "time": {
    "samples": {
      "AcquisitionNumber": [1, 2, 3, 4, 5, 6, 7, 8, 9, 10, 11, 12, 13, 14, 15, 16, 17, 18, 19, 20, 21, 22, 23, 24, 25, 26, 27, 28, 29, 30, 31, 32, 33, 34, 35, 36, 37, 38, 39, 40, 41, 42, 43, 44, 45, 46, 47, 48, 49, 50, 51, 52, 53, 54, 55, 56, 57, 58, 59, 60, 61, 62, 63, 64, 65, 66, 67, 68, 69, 70, 71, 72, 73, 74, 75, 76, 77, 78, 79, 80, 81, 82, 83, 84, 85, 86, 87, 88, 89, 90, 91, 92, 93, 94, 95, 96, 97, 98, 99, 100, 101, 102, 103, 104, 105, 106, 107, 108, 109, 110, 111, 112, 113, 114, 115, 116, 117, 118, 119, 120, 121, 122, 123, 124, 125, 126, 127, 128, 129, 130, 131, 132, 133, 134, 135, 136, 137, 138, 139, 140, 141, 142, 143, 144, 145, 146, 147, 148, 149, 150, 151, 152, 153, 154, 155, 156, 157, 158, 159, 160, 161, 162, 163, 164, 165, 166, 167, 168, 169, 170, 171, 172, 173, 174, 175, 176, 177, 178, 179, 180, 181, 182, 183, 184, 185, 186, 187, 188, 189, 190, 191, 192, 193, 194, 195, 196, 197, 198, 199, 200, 201, 202, 203, 204, 205, 206, 207, 208, 209, 210, 211, 212, 213, 214, 215, 216, 217, 218, 219, 220, 221, 222, 223, 224, 225, 226, 227, 228, 229, 230, 231, 232, 233, 234, 235, 236, 237, 238, 239, 240, 241, 242, 243, 244, 245, 246, 247, 248, 249, 250, 251, 252, 253, 254, 255, 256, 257, 258, 259, 260, 261, 262, 263, 264, 265, 266, 267, 268, 269, 270, 271, 272, 273, 274, 275, 276, 277, 278, 279, 280, 281, 282, 283, 284, 285, 286, 287, 288, 289, 290, 291, 292, 293, 294, 295, 296, 297, 298, 299, 300, 301, 302, 303, 304, 305, 306, 307, 308, 309, 310, 311, 312, 313, 314, 315, 316, 317, 318, 319, 320, 321, 322, 323, 324, 325, 326, 327, 328, 329, 330, 331, 332, 333, 334, 335, 336, 337, 338, 339, 340, 341, 342, 343, 344, 345, 346, 347, 348, 349, 350, 351, 352, 353, 354, 355, 356, 357],
      "AcquisitionTime": ["121038.782500", "121040.287500", "121041.795000", "121043.300000", "121044.807500", "121046.312500", "121047.817500", "121049.325000", "121050.830000", "121052.337500", "121053.842500", "121055.347500", "121056.855000", "121058.360000", "121059.867500", "121101.372500", "121102.880000", "121104.385000", "121105.890000", "121107.397500", "121108.902500", "121110.410000", "121111.915000", "121113.420000", "121114.927500", "121116.432500", "121117.940000", "121119.445000", "121120.950000", "121122.457500", "121123.962500", "121125.470000", "121126.975000", "121128.480000", "121129.987500", "121131.492500", "121133.000000", "121134.505000", "121136.012500", "121137.517500", "121139.022500", "121140.530000", "121142.035000", "121143.542500", "121145.047500", "121146.552500", "121148.060000", "121149.565000", "121151.072500", "121152.577500", "121154.082500", "121155.590000", "121157.095000", "121158.602500", "121200.107500", "121201.612500", "121203.120000", "121204.625000", "121206.132500", "121207.637500", "121209.145000", "121210.650000", "121212.155000", "121213.662500", "121215.167500", "121216.675000", "121218.180000", "121219.685000", "121221.192500", "121222.697500", "121224.205000", "121225.710000", "121227.215000", "121228.722500", "121230.227500", "121231.735000", "121233.240000", "121234.745000", "121236.252500", "121237.757500", "121239.265000", "121240.770000", "121242.277500", "121243.782500", "121245.287500", "121246.795000", "121248.300000", "121249.807500", "121251.312500", "121252.817500", "121254.325000", "121255.830000", "121257.337500", "121258.842500", "121300.347500", "121301.855000", "121303.360000", "121304.867500", "121306.372500", "121307.880000", "121309.385000", "121310.890000", "121312.397500", "121313.902500", "121315.410000", "121316.915000", "121318.420000", "121319.927500", "121321.432500", "121322.940000", "121324.445000", "121325.950000", "121327.457500", "121328.962500", "121330.470000", "121331.975000", "121333.480000", "121334.987500", "121336.492500", "121338.000000", "121339.505000", "121341.012500", "121342.517500", "121344.022500", "121345.530000", "121347.035000", "121348.542500", "121350.047500", "121351.552500", "121353.060000", "121354.565000", "121356.072500", "121357.577500", "121359.082500", "121400.590000", "121402.095000", "121403.602500", "121405.107500", "121406.612500", "121408.120000", "121409.625000", "121411.132500", "121412.637500", "121414.145000", "121415.650000", "121417.155000", "121418.662500", "121420.167500", "121421.675000", "121423.180000", "121424.685000", "121426.192500", "121427.697500", "121429.205000", "121430.710000", "121432.215000", "121433.722500", "121435.227500", "121436.735000", "121438.240000", "121439.745000", "121441.252500", "121442.757500", "121444.265000", "121445.770000", "121447.277500", "121448.782500", "121450.287500", "121451.795000", "121453.300000", "121454.807500", "121456.312500", "121457.817500", "121459.325000", "121500.830000", "121502.337500", "121503.842500", "121505.347500", "121506.855000", "121508.360000", "121509.867500", "121511.372500", "121512.880000", "121514.385000", "121515.890000", "121517.397500", "121518.902500", "121520.410000", "121521.915000", "121523.420000", "121524.927500", "121526.432500", "121527.940000", "121529.445000", "121530.950000", "121532.457500", "121533.962500", "121535.470000", "121536.975000", "121538.480000", "121539.987500", "121541.492500", "121543.000000", "121544.505000", "121546.012500", "121547.517500", "121549.022500", "121550.530000", "121552.035000", "121553.542500", "121555.047500", "121556.552500", "121558.060000", "121559.565000", "121601.072500", "121602.577500", "121604.082500", "121605.590000", "121607.095000", "121608.602500", "121610.107500", "121611.612500", "121613.120000", "121614.625000", "121616.132500", "121617.637500", "121619.145000", "121620.650000", "121622.155000", "121623.662500", "121625.167500", "121626.675000", "121628.180000", "121629.685000", "121631.192500", "121632.697500", "121634.205000", "121635.710000", "121637.215000", "121638.722500", "121640.227500", "121641.735000", "121643.240000", "121644.745000", "121646.252500", "121647.757500", "121649.265000", "121650.770000", "121652.277500", "121653.782500", "121655.287500", "121656.795000", "121658.300000", "121659.807500", "121701.312500", "121702.817500", "121704.325000", "121705.830000", "121707.337500", "121708.842500", "121710.347500", "121711.855000", "121713.360000", "121714.867500", "121716.372500", "121717.880000", "121719.385000", "121720.890000", "121722.397500", "121723.902500", "121725.410000", "121726.915000", "121728.420000", "121729.927500", "121731.432500", "121732.940000", "121734.445000", "121735.950000", "121737.457500", "121738.962500", "121740.470000", "121741.975000", "121743.480000", "121744.987500", "121746.492500", "121748.000000", "121749.505000", "121751.012500", "121752.517500", "121754.022500", "121755.530000", "121757.035000", "121758.542500", "121800.047500", "121801.552500", "121803.060000", "121804.565000", "121806.072500", "121807.577500", "121809.082500", "121810.590000", "121812.095000", "121813.602500", "121815.107500", "121816.612500", "121818.120000", "121819.625000", "121821.132500", "121822.637500", "121824.145000", "121825.650000", "121827.155000", "121828.662500", "121830.167500", "121831.675000", "121833.180000", "121834.685000", "121836.192500", "121837.697500", "121839.205000", "121840.710000", "121842.215000", "121843.722500", "121845.227500", "121846.735000", "121848.240000", "121849.745000", "121851.252500", "121852.757500", "121854.265000", "121855.770000", "121857.277500", "121858.782500", "121900.287500", "121901.795000", "121903.300000", "121904.807500", "121906.312500", "121907.817500", "121909.325000", "121910.830000", "121912.337500", "121913.842500", "121915.347500", "121916.855000", "121918.360000", "121919.867500", "121921.372500", "121922.880000", "121924.385000", "121925.890000", "121927.397500", "121928.902500", "121930.410000", "121931.915000", "121933.420000", "121934.927500"],
      "ContentTime": ["121625.265000", "121625.281000", "121625.281000", "121625.281000", "121625.281000", "121625.281000", "121625.296000", "121625.296000", "121625.296000", "121625.296000", "121625.296000", "121625.296000", "121625.296000", "121625.296000", "121625.296000", "121625.312000", "121625.312000", "121625.312000", "121625.312000", "121625.312000", "121625.312000", "121625.312000", "121625.312000", "121725.265000", "121725.265000", "121725.265000", "121725.265000", "121725.281000", "121725.281000", "121725.281000", "121725.281000", "121725.281000", "121725.281000", "121725.296000", "121725.296000", "121725.296000", "121725.296000", "121725.312000", "121725.312000", "121725.312000", "121725.312000", "121725.312000", "121725.312000", "121725.312000", "121725.312000", "121725.312000", "121725.328000", "121725.328000", "121725.328000", "121825.265000", "121825.265000", "121825.265000", "121825.265000", "121825.281000", "121825.281000", "121825.281000", "121825.281000", "121825.281000", "121825.281000", "121825.281000", "121825.281000", "121825.281000", "121825.296000", "121825.296000", "121825.296000", "121825.296000", "121825.296000", "121825.296000", "121825.296000", "121825.296000", "121825.296000", "121825.296000", "121825.312000", "121825.312000", "121825.312000", "121925.265000", "121925.265000", "121925.265000", "121925.265000", "121925.281000", "121925.281000", "121925.281000", "121925.281000", "121925.281000", "121925.281000", "121925.281000", "121925.281000", "121925.281000", "121925.296000", "121925.296000", "121925.296000", "121925.296000", "121925.296000", "121925.296000", "121925.296000", "121925.296000", "121925.296000", "121925.312000", "121925.312000", "121925.312000", "121925.312000", "122025.265000", "122025.265000", "122025.265000", "122025.265000", "122025.281000", "122025.281000", "122025.296000", "122025.312000", "122025.312000", "122025.312000", "122025.312000", "122025.312000", "122025.312000", "122025.312000", "122025.328000", "122025.328000", "122025.328000", "122025.328000", "122025.328000", "122025.328000", "122025.328000", "122025.328000", "122025.343000", "122025.343000", "122025.343000", "122025.343000", "122125.265000", "122125.265000", "122125.265000", "122125.265000", "122125.265000", "122125.281000", "122125.281000", "122125.281000", "122125.281000", "122125.281000", "122125.281000", "122125.281000", "122125.281000", "122125.281000", "122125.296000", "122125.296000", "122125.296000", "122125.296000", "122125.296000", "122125.296000", "122125.296000", "122125.296000", "122125.296000", "122125.312000", "122125.312000", "122125.312000", "122225.265000", "122225.281000", "122225.281000", "122225.281000", "122225.281000", "122225.281000", "122225.281000", "122225.281000", "122225.296000", "122225.296000", "122225.296000", "122225.296000", "122225.296000", "122225.296000", "122225.312000", "122225.312000", "122225.312000", "122225.312000", "122225.312000", "122225.312000", "122225.312000", "122225.328000", "122225.328000", "122225.328000", "122225.328000", "122225.328000", "122325.265000", "122325.265000", "122325.281000", "122325.281000", "122325.281000", "122325.281000", "122325.281000", "122325.281000", "122325.296000", "122325.296000", "122325.296000", "122325.296000", "122325.296000", "122325.296000", "122325.296000", "122325.296000", "122325.296000", "122325.312000", "122325.312000", "122325.312000", "122325.312000", "122325.312000", "122325.312000", "122325.312000", "122325.312000", "122425.265000", "122425.265000", "122425.265000", "122425.265000", "122425.281000", "122425.281000", "122425.281000", "122425.281000", "122425.281000", "122425.281000", "122425.281000", "122425.296000", "122425.296000", "122425.296000", "122425.296000", "122425.296000", "122425.296000", "122425.296000", "122425.296000", "122425.296000", "122425.312000", "122425.312000", "122425.312000", "122425.312000", "122425.312000", "122425.312000", "122525.265000", "122525.265000", "122525.281000", "122525.281000", "122525.281000", "122525.281000", "122525.281000", "122525.296000", "122525.296000", "122525.296000", "122525.296000", "122525.296000", "122525.296000", "122525.296000", "122525.296000", "122525.312000", "122525.312000", "122525.312000", "122525.312000", "122525.312000", "122525.312000", "122525.312000", "122525.312000", "122525.328000", "122525.328000", "122525.328000", "122625.265000", "122625.265000", "122625.265000", "122625.265000", "122625.281000", "122625.281000", "122625.281000", "122625.281000", "122625.281000", "122625.296000", "122625.296000", "122625.296000", "122625.296000", "122625.296000", "122625.296000", "122625.296000", "122625.296000", "122625.296000", "122625.312000", "122625.312000", "122625.312000", "122625.312000", "122625.312000", "122625.312000", "122625.312000", "122625.312000", "122725.265000", "122725.265000", "122725.265000", "122725.265000", "122725.281000", "122725.281000", "122725.281000", "122725.281000", "122725.281000", "122725.281000", "122725.281000", "122725.281000", "122725.281000", "122725.296000", "122725.296000", "122725.296000", "122725.296000", "122725.312000", "122725.312000", "122725.312000", "122725.312000", "122725.312000", "122725.312000", "122725.328000", "122725.328000", "122725.328000", "122825.265000", "122825.265000", "122825.265000", "122825.265000", "122825.281000", "122825.281000", "122825.281000", "122825.281000", "122825.281000", "122825.281000", "122825.281000", "122825.281000", "122825.281000", "122825.296000", "122825.296000", "122825.296000", "122825.312000", "122825.312000", "122825.312000", "122825.312000", "122825.312000", "122825.312000", "122825.312000", "122825.312000", "122825.312000", "122825.328000", "122917.421000", "122917.421000", "122917.421000", "122917.453000", "122917.468000", "122917.468000", "122917.468000", "122917.468000", "122917.484000", "122917.484000", "122917.484000", "122917.484000", "122917.484000", "122917.484000", "122917.484000", "122917.484000", "122917.500000", "122917.500000", "122917.500000", "122917.500000", "122917.500000", "122917.500000", "122917.500000"],
      "DataSetTrailingPadding": [
        "\u0000\u0000\u0000\u0000\u0000\u0000\u0000\u0000\u0000\u0000\u0000\u0000\u0000\u0000\u0000\u0000\u0000\u0000\u0000\u0000\u0000\u0000\u0000\u0000\u0000\u0000\u0000\u0000\u0000\u0000\u0000\u0000\u0000\u0000\u0000\u0000\u0000\u0000\u0000\u0000\u0000\u0000\u0000\u0000\u0000\u0000\u0000\u0000\u0000\u0000",
        "\u0000\u0000\u0000\u0000\u0000\u0000\u0000\u0000\u0000\u0000\u0000\u0000\u0000\u0000\u0000\u0000\u0000\u0000\u0000\u0000\u0000\u0000\u0000\u0000\u0000\u0000\u0000\u0000\u0000\u0000\u0000\u0000\u0000\u0000\u0000\u0000\u0000\u0000\u0000\u0000\u0000\u0000\u0000\u0000\u0000\u0000\u0000\u0000\u0000\u0000\u0000\u0000\u0000\u0000",
        "\u0000\u0000\u0000\u0000\u0000\u0000\u0000\u0000\u0000\u0000\u0000\u0000\u0000\u0000\u0000\u0000\u0000\u0000\u0000\u0000\u0000\u0000\u0000\u0000\u0000\u0000\u0000\u0000\u0000\u0000\u0000\u0000\u0000\u0000\u0000\u0000\u0000\u0000\u0000\u0000\u0000\u0000\u0000\u0000\u0000\u0000\u0000\u0000\u0000\u0000",
        "\u0000\u0000\u0000\u0000\u0000\u0000\u0000\u0000\u0000\u0000\u0000\u0000\u0000\u0000\u0000\u0000\u0000\u0000\u0000\u0000\u0000\u0000\u0000\u0000\u0000\u0000\u0000\u0000\u0000\u0000\u0000\u0000\u0000\u0000\u0000\u0000\u0000\u0000\u0000\u0000\u0000\u0000\u0000\u0000\u0000\u0000\u0000\u0000\u0000\u0000\u0000\u0000",
        "\u0000\u0000\u0000\u0000\u0000\u0000\u0000\u0000\u0000\u0000\u0000\u0000\u0000\u0000\u0000\u0000\u0000\u0000\u0000\u0000\u0000\u0000\u0000\u0000\u0000\u0000\u0000\u0000\u0000\u0000\u0000\u0000\u0000\u0000\u0000\u0000\u0000\u0000\u0000\u0000\u0000\u0000\u0000\u0000\u0000\u0000\u0000\u0000\u0000\u0000\u0000\u0000",
        "\u0000\u0000\u0000\u0000\u0000\u0000\u0000\u0000\u0000\u0000\u0000\u0000\u0000\u0000\u0000\u0000\u0000\u0000\u0000\u0000\u0000\u0000\u0000\u0000\u0000\u0000\u0000\u0000\u0000\u0000\u0000\u0000\u0000\u0000\u0000\u0000\u0000\u0000\u0000\u0000\u0000\u0000\u0000\u0000\u0000\u0000\u0000\u0000\u0000\u0000",
        "\u0000\u0000\u0000\u0000\u0000\u0000\u0000\u0000\u0000\u0000\u0000\u0000\u0000\u0000\u0000\u0000\u0000\u0000\u0000\u0000\u0000\u0000\u0000\u0000\u0000\u0000\u0000\u0000\u0000\u0000\u0000\u0000\u0000\u0000\u0000\u0000\u0000\u0000\u0000\u0000\u0000\u0000\u0000\u0000\u0000\u0000\u0000\u0000\u0000\u0000",
        "\u0000\u0000\u0000\u0000\u0000\u0000\u0000\u0000\u0000\u0000\u0000\u0000\u0000\u0000\u0000\u0000\u0000\u0000\u0000\u0000\u0000\u0000\u0000\u0000\u0000\u0000\u0000\u0000\u0000\u0000\u0000\u0000\u0000\u0000\u0000\u0000\u0000\u0000\u0000\u0000\u0000\u0000\u0000\u0000\u0000\u0000\u0000\u0000\u0000\u0000",
        "\u0000\u0000\u0000\u0000\u0000\u0000\u0000\u0000\u0000\u0000\u0000\u0000\u0000\u0000\u0000\u0000\u0000\u0000\u0000\u0000\u0000\u0000\u0000\u0000\u0000\u0000\u0000\u0000\u0000\u0000\u0000\u0000\u0000\u0000\u0000\u0000\u0000\u0000\u0000\u0000\u0000\u0000\u0000\u0000\u0000\u0000\u0000\u0000\u0000\u0000\u0000\u0000",
        "\u0000\u0000\u0000\u0000\u0000\u0000\u0000\u0000\u0000\u0000\u0000\u0000\u0000\u0000\u0000\u0000\u0000\u0000\u0000\u0000\u0000\u0000\u0000\u0000\u0000\u0000\u0000\u0000\u0000\u0000\u0000\u0000\u0000\u0000\u0000\u0000\u0000\u0000\u0000\u0000\u0000\u0000\u0000\u0000\u0000\u0000\u0000\u0000",
        "\u0000\u0000\u0000\u0000\u0000\u0000\u0000\u0000\u0000\u0000\u0000\u0000\u0000\u0000\u0000\u0000\u0000\u0000\u0000\u0000\u0000\u0000\u0000\u0000\u0000\u0000\u0000\u0000\u0000\u0000\u0000\u0000\u0000\u0000\u0000\u0000\u0000\u0000\u0000\u0000\u0000\u0000\u0000\u0000\u0000\u0000",
        "\u0000\u0000\u0000\u0000\u0000\u0000\u0000\u0000\u0000\u0000\u0000\u0000\u0000\u0000\u0000\u0000\u0000\u0000\u0000\u0000\u0000\u0000\u0000\u0000\u0000\u0000\u0000\u0000\u0000\u0000\u0000\u0000\u0000\u0000\u0000\u0000\u0000\u0000\u0000\u0000\u0000\u0000\u0000\u0000\u0000\u0000",
        "\u0000\u0000\u0000\u0000\u0000\u0000\u0000\u0000\u0000\u0000\u0000\u0000\u0000\u0000\u0000\u0000\u0000\u0000\u0000\u0000\u0000\u0000\u0000\u0000\u0000\u0000\u0000\u0000\u0000\u0000\u0000\u0000\u0000\u0000\u0000\u0000\u0000\u0000\u0000\u0000\u0000\u0000\u0000\u0000\u0000\u0000",
        "\u0000\u0000\u0000\u0000\u0000\u0000\u0000\u0000\u0000\u0000\u0000\u0000\u0000\u0000\u0000\u0000\u0000\u0000\u0000\u0000\u0000\u0000\u0000\u0000\u0000\u0000\u0000\u0000\u0000\u0000\u0000\u0000\u0000\u0000\u0000\u0000\u0000\u0000\u0000\u0000\u0000\u0000\u0000\u0000\u0000\u0000\u0000\u0000",
        "\u0000\u0000\u0000\u0000\u0000\u0000\u0000\u0000\u0000\u0000\u0000\u0000\u0000\u0000\u0000\u0000\u0000\u0000\u0000\u0000\u0000\u0000\u0000\u0000\u0000\u0000\u0000\u0000\u0000\u0000\u0000\u0000\u0000\u0000\u0000\u0000\u0000\u0000\u0000\u0000\u0000\u0000\u0000\u0000\u0000\u0000\u0000\u0000",
        "\u0000\u0000\u0000\u0000\u0000\u0000\u0000\u0000\u0000\u0000\u0000\u0000\u0000\u0000\u0000\u0000\u0000\u0000\u0000\u0000\u0000\u0000\u0000\u0000\u0000\u0000\u0000\u0000\u0000\u0000\u0000\u0000\u0000\u0000\u0000\u0000\u0000\u0000\u0000\u0000\u0000\u0000\u0000\u0000\u0000\u0000",
        "\u0000\u0000\u0000\u0000\u0000\u0000\u0000\u0000\u0000\u0000\u0000\u0000\u0000\u0000\u0000\u0000\u0000\u0000\u0000\u0000\u0000\u0000\u0000\u0000\u0000\u0000\u0000\u0000\u0000\u0000\u0000\u0000\u0000\u0000\u0000\u0000\u0000\u0000\u0000\u0000\u0000\u0000\u0000\u0000\u0000\u0000\u0000\u0000",
        "\u0000\u0000\u0000\u0000\u0000\u0000\u0000\u0000\u0000\u0000\u0000\u0000\u0000\u0000\u0000\u0000\u0000\u0000\u0000\u0000\u0000\u0000\u0000\u0000\u0000\u0000\u0000\u0000\u0000\u0000\u0000\u0000\u0000\u0000\u0000\u0000\u0000\u0000\u0000\u0000\u0000\u0000\u0000\u0000\u0000\u0000\u0000\u0000",
        "\u0000\u0000\u0000\u0000\u0000\u0000\u0000\u0000\u0000\u0000\u0000\u0000\u0000\u0000\u0000\u0000\u0000\u0000\u0000\u0000\u0000\u0000\u0000\u0000\u0000\u0000\u0000\u0000\u0000\u0000\u0000\u0000\u0000\u0000\u0000\u0000\u0000\u0000\u0000\u0000\u0000\u0000\u0000\u0000\u0000\u0000\u0000\u0000",
        "\u0000\u0000\u0000\u0000\u0000\u0000\u0000\u0000\u0000\u0000\u0000\u0000\u0000\u0000\u0000\u0000\u0000\u0000\u0000\u0000\u0000\u0000\u0000\u0000\u0000\u0000\u0000\u0000\u0000\u0000\u0000\u0000\u0000\u0000\u0000\u0000\u0000\u0000\u0000\u0000\u0000\u0000\u0000\u0000\u0000\u0000\u0000\u0000",
        "\u0000\u0000\u0000\u0000\u0000\u0000\u0000\u0000\u0000\u0000\u0000\u0000\u0000\u0000\u0000\u0000\u0000\u0000\u0000\u0000\u0000\u0000\u0000\u0000\u0000\u0000\u0000\u0000\u0000\u0000\u0000\u0000\u0000\u0000\u0000\u0000\u0000\u0000\u0000\u0000\u0000\u0000\u0000\u0000\u0000\u0000",
        "\u0000\u0000\u0000\u0000\u0000\u0000\u0000\u0000\u0000\u0000\u0000\u0000\u0000\u0000\u0000\u0000\u0000\u0000\u0000\u0000\u0000\u0000\u0000\u0000\u0000\u0000\u0000\u0000\u0000\u0000\u0000\u0000\u0000\u0000\u0000\u0000\u0000\u0000\u0000\u0000\u0000\u0000\u0000\u0000\u0000\u0000",
        "\u0000\u0000\u0000\u0000\u0000\u0000\u0000\u0000\u0000\u0000\u0000\u0000\u0000\u0000\u0000\u0000\u0000\u0000\u0000\u0000\u0000\u0000\u0000\u0000\u0000\u0000\u0000\u0000\u0000\u0000\u0000\u0000\u0000\u0000\u0000\u0000\u0000\u0000\u0000\u0000\u0000\u0000\u0000\u0000\u0000\u0000\u0000\u0000\u0000\u0000",
        "\u0000\u0000\u0000\u0000\u0000\u0000\u0000\u0000\u0000\u0000\u0000\u0000\u0000\u0000\u0000\u0000\u0000\u0000\u0000\u0000\u0000\u0000\u0000\u0000\u0000\u0000\u0000\u0000\u0000\u0000\u0000\u0000\u0000\u0000\u0000\u0000\u0000\u0000\u0000\u0000\u0000\u0000\u0000\u0000\u0000\u0000\u0000\u0000",
        "\u0000\u0000\u0000\u0000\u0000\u0000\u0000\u0000\u0000\u0000\u0000\u0000\u0000\u0000\u0000\u0000\u0000\u0000\u0000\u0000\u0000\u0000\u0000\u0000\u0000\u0000\u0000\u0000\u0000\u0000\u0000\u0000\u0000\u0000\u0000\u0000\u0000\u0000\u0000\u0000\u0000\u0000\u0000\u0000\u0000\u0000\u0000\u0000",
        "\u0000\u0000\u0000\u0000\u0000\u0000\u0000\u0000\u0000\u0000\u0000\u0000\u0000\u0000\u0000\u0000\u0000\u0000\u0000\u0000\u0000\u0000\u0000\u0000\u0000\u0000\u0000\u0000\u0000\u0000\u0000\u0000\u0000\u0000\u0000\u0000\u0000\u0000\u0000\u0000\u0000\u0000\u0000\u0000\u0000\u0000",
        "\u0000\u0000\u0000\u0000\u0000\u0000\u0000\u0000\u0000\u0000\u0000\u0000\u0000\u0000\u0000\u0000\u0000\u0000\u0000\u0000\u0000\u0000\u0000\u0000\u0000\u0000\u0000\u0000\u0000\u0000\u0000\u0000\u0000\u0000\u0000\u0000\u0000\u0000\u0000\u0000\u0000\u0000\u0000\u0000\u0000\u0000",
        "\u0000\u0000\u0000\u0000\u0000\u0000\u0000\u0000\u0000\u0000\u0000\u0000\u0000\u0000\u0000\u0000\u0000\u0000\u0000\u0000\u0000\u0000\u0000\u0000\u0000\u0000\u0000\u0000\u0000\u0000\u0000\u0000\u0000\u0000\u0000\u0000\u0000\u0000\u0000\u0000\u0000\u0000\u0000\u0000\u0000\u0000\u0000\u0000",
        "\u0000\u0000\u0000\u0000\u0000\u0000\u0000\u0000\u0000\u0000\u0000\u0000\u0000\u0000\u0000\u0000\u0000\u0000\u0000\u0000\u0000\u0000\u0000\u0000\u0000\u0000\u0000\u0000\u0000\u0000\u0000\u0000\u0000\u0000\u0000\u0000\u0000\u0000\u0000\u0000\u0000\u0000\u0000\u0000\u0000\u0000\u0000\u0000\u0000\u0000\u0000\u0000",
        "\u0000\u0000\u0000\u0000\u0000\u0000\u0000\u0000\u0000\u0000\u0000\u0000\u0000\u0000\u0000\u0000\u0000\u0000\u0000\u0000\u0000\u0000\u0000\u0000\u0000\u0000\u0000\u0000\u0000\u0000\u0000\u0000\u0000\u0000\u0000\u0000\u0000\u0000\u0000\u0000\u0000\u0000\u0000\u0000\u0000\u0000\u0000\u0000",
        "\u0000\u0000\u0000\u0000\u0000\u0000\u0000\u0000\u0000\u0000\u0000\u0000\u0000\u0000\u0000\u0000\u0000\u0000\u0000\u0000\u0000\u0000\u0000\u0000\u0000\u0000\u0000\u0000\u0000\u0000\u0000\u0000\u0000\u0000\u0000\u0000\u0000\u0000\u0000\u0000\u0000\u0000\u0000\u0000\u0000\u0000",
        "\u0000\u0000\u0000\u0000\u0000\u0000\u0000\u0000\u0000\u0000\u0000\u0000\u0000\u0000\u0000\u0000\u0000\u0000\u0000\u0000\u0000\u0000\u0000\u0000\u0000\u0000\u0000\u0000\u0000\u0000\u0000\u0000\u0000\u0000\u0000\u0000\u0000\u0000\u0000\u0000\u0000\u0000\u0000\u0000\u0000\u0000",
        "\u0000\u0000\u0000\u0000\u0000\u0000\u0000\u0000\u0000\u0000\u0000\u0000\u0000\u0000\u0000\u0000\u0000\u0000\u0000\u0000\u0000\u0000\u0000\u0000\u0000\u0000\u0000\u0000\u0000\u0000\u0000\u0000\u0000\u0000\u0000\u0000\u0000\u0000\u0000\u0000\u0000\u0000\u0000\u0000\u0000\u0000\u0000\u0000",
        "\u0000\u0000\u0000\u0000\u0000\u0000\u0000\u0000\u0000\u0000\u0000\u0000\u0000\u0000\u0000\u0000\u0000\u0000\u0000\u0000\u0000\u0000\u0000\u0000\u0000\u0000\u0000\u0000\u0000\u0000\u0000\u0000\u0000\u0000\u0000\u0000\u0000\u0000\u0000\u0000\u0000\u0000\u0000\u0000\u0000\u0000\u0000\u0000",
