{
  "AcquisitionMatrixPE": 110,
  "AcquisitionNumber": 1,
  "AcquisitionTime": "19:24:34.817500",
  "BandwidthPerPixelPhaseEncode": 26.35,
  "BaseResolution": 110,
  "CoilString": "C:HEA;HEP",
  "ConversionSoftware": "dcm2niix",
  "ConversionSoftwareVersion": "v1.0.20190410  GCC6.3.0",
  "DerivedVendorReportedEchoSpacing": 0.000690012,
  "DeviceSerialNumber": "35422",
  "DwellTime": 2.6e-06,
  "EchoTime": 0.03,
  "EffectiveEchoSpacing": 0.000345006,
  "FlipAngle": 85,
  "ImageComments": "Unaliased_MB4_PE4_LB",
  "ImageOrientationPatientDICOM": [0.999997, -0.000317045, -0.00238999, 2.17736e-10, 0.991316, -0.131503],
  "ImageType": [
    "ORIGINAL",
    "PRIMARY",
    "FMRI",
    "NONE",
    "MB",
    "ND",
    "MOSAIC"
],
  "ImagingFrequency": 123.178,
  "InPlanePhaseEncodingDirectionDICOM": "ROW",
  "InstitutionAddress": "kwanakro_599_C4F276_Seoul_KR_ZIP",
  "InstitutionName": "SNUBIC",
  "InstitutionalDepartmentName": "Department",
  "MRAcquisitionType": "2D",
  "MagneticFieldStrength": 3,
  "Manufacturer": "Siemens",
  "ManufacturersModelName": "TrioTim",
  "Modality": "MR",
  "MultibandAccelerationFactor": 4,
  "ParallelReductionFactorInPlane": 2,
  "PartialFourier": 1,
  "PatientPosition": "HFS",
  "PercentPhaseFOV": 100,
  "PhaseEncodingDirection": "i-",
  "PhaseEncodingSteps": 110,
  "PhaseResolution": 1,
  "PixelBandwidth": 1748,
  "ProcedureStepDescription": "SNU_SAVED",
  "ProtocolName": "WMGNG2_MB4_LR_SBRef",
  "PulseSequenceDetails": "%CustomerSeq%_cmrr_mbep2d_bold",
  "ReceiveCoilName": "32Ch_Head",
  "ReconMatrixPE": 110,
  "RefLinesPE": 32,
  "RepetitionTime": 1.5,
  "SAR": 0.146617,
  "ScanOptions": "FS",
  "ScanningSequence": "EP",
  "SequenceName": "epfid2d1_110",
  "SequenceVariant": "SK_SS",
  "SeriesDescription": "WMGNG2_MB4_LR_SBRef",
  "SeriesNumber": 23,
  "ShimSetting": [-4141, -29851, -2060, 486, -100, 192, -4, -5],
  "SliceThickness": 2.3,
  "SliceTiming": [0, 0.66, 1.3175, 0.4725, 1.13, 0.2825, 0.9425, 0.095, 0.755, 1.4125, 0.565, 1.225, 0.3775, 1.0375, 0.19, 0.8475, 0, 0.66, 1.3175, 0.4725, 1.13, 0.2825, 0.9425, 0.095, 0.755, 1.4125, 0.565, 1.225, 0.3775, 1.0375, 0.19, 0.8475, 0, 0.66, 1.3175, 0.4725, 1.13, 0.2825, 0.9425, 0.095, 0.755, 1.4125, 0.565, 1.225, 0.3775, 1.0375, 0.19, 0.8475, 0, 0.66, 1.3175, 0.4725, 1.13, 0.2825, 0.9425, 0.095, 0.755, 1.4125, 0.565, 1.225, 0.3775, 1.0375, 0.19, 0.8475],
  "SoftwareVersions": "syngo_MR_B17",
  "SpacingBetweenSlices": 2.3,
  "StationName": "MRC35422",
  "TaskName": "wmgng",
  "TotalReadoutTime": 0.0376057,
  "TxRefAmp": 364.503,
  "dcmmeta_affine": [
    [-2.327265977859497, 5.067314901019415e-10, -0.005545142572373152, 131.9332275390625],
    [0.0007378493901342154, 2.3070621490478516, -0.30245575308799744, -98.83082580566406],
    [-0.005562168546020985, 0.3060430586338043, 2.280019760131836, -60.00312805175781],
    [0.0, 0.0, 0.0, 1.0]
],
  "dcmmeta_reorient_transform": [
    [0.0, -1.0, 0.0, 109.0],
    [1.0, 0.0, 0.0, 0.0],
    [0.0, 0.0, 1.0, 0.0],
    [0.0, 0.0, 0.0, 1.0]
],
  "dcmmeta_shape": [110, 110, 64, 357],
  "dcmmeta_slice_dim": 2,
  "dcmmeta_version": 0.6,
  "global": {
    "const": {
      "AcquisitionMatrix": [0, 110, 110, 0],
      "AngioFlag": "N",
      "BitsAllocated": 16,
      "BitsStored": 12,
      "Columns": 880,
      "EchoNumbers": 1,
      "EchoTime": 30.0,
      "EchoTrainLength": 1,
      "FlipAngle": 85.0,
      "HighBit": 11,
      "ImageOrientationPatient": [0.99999709370041, -0.000317044665, -0.0023899944383, 2.177362e-10, 0.99131578783077, -0.1315028851298],
      "ImagePositionPatient": [-1027.9306014714, -1040.5737899538, 93.323581863132],
      "ImageType": [
        "ORIGINAL",
        "PRIMARY",
        "FMRI",
        "NONE",
        "MB",
        "ND",
        "MOSAIC"
],
      "ImagedNucleus": "1H",
      "ImagingFrequency": 123.177559,
      "InPlanePhaseEncodingDirection": "ROW",
      "MRAcquisitionType": "2D",
      "MagneticFieldStrength": 3.0,
      "Manufacturer": "SIEMENS",
      "ManufacturerModelName": "TrioTim",
      "Modality": "MR",
      "NumberOfAverages": 1.0,
      "NumberOfPhaseEncodingSteps": 110,
      "PercentPhaseFieldOfView": 100.0,
      "PercentSampling": 100.0,
      "PerformedProcedureStepStartTime": "183734.984000",
      "PhotometricInterpretation": "MONOCHROME2",
      "PixelBandwidth": 1748.0,
      "PixelRepresentation": 0,
      "PixelSpacing": [2.3272726535797, 2.3272726535797],
      "ProtocolName": "WMGNG2_MB4_LR_SBRef",
      "ReferencedPerformedProcedureStepSequence": [
        {
          "ReferencedSOPClassUID": "1.2.840.10008.3.1.2.3.3",
          "ReferencedSOPInstanceUID": "1.3.12.2.1107.5.2.32.35422.30000019122407124248400000001"}
],
      "RepetitionTime": 1500.0,
      "Rows": 880,
      "SAR": 0.14661722714322,
      "SamplesPerPixel": 1,
      "ScanOptions": "FS",
      "ScanningSequence": "EP",
      "SequenceName": "epfid2d1_110",
      "SequenceVariant": [
        "SK",
        "SS"
],
      "SeriesDescription": "WMGNG2_MB4_LR_SBRef",
      "SeriesNumber": 23,
      "SeriesTime": "193607.484000",
      "SliceLocation": -46.803456943139,
      "SliceThickness": 2.2999999523163,
      "SmallestImagePixelValue": 0,
      "SoftwareVersions": "syngo MR B17",
      "SpacingBetweenSlices": 2.3000000450976,
      "SpecificCharacterSet": "ISO_IR 100",
      "StudyID": "1",
      "StudyTime": "183734.937000",
      "TransmitCoilName": "Body",
      "VariableFlipAngleFlag": "N",
      "WindowCenterWidthExplanation": "Algo1",
      "dBdt": 0.0},
    "slices": {}
  },
  "time": {
    "samples": {
      "AcquisitionNumber": [1, 2, 3, 4, 5, 6, 7, 8, 9, 10, 11, 12, 13, 14, 15, 16, 17, 18, 19, 20, 21, 22, 23, 24, 25, 26, 27, 28, 29, 30, 31, 32, 33, 34, 35, 36, 37, 38, 39, 40, 41, 42, 43, 44, 45, 46, 47, 48, 49, 50, 51, 52, 53, 54, 55, 56, 57, 58, 59, 60, 61, 62, 63, 64, 65, 66, 67, 68, 69, 70, 71, 72, 73, 74, 75, 76, 77, 78, 79, 80, 81, 82, 83, 84, 85, 86, 87, 88, 89, 90, 91, 92, 93, 94, 95, 96, 97, 98, 99, 100, 101, 102, 103, 104, 105, 106, 107, 108, 109, 110, 111, 112, 113, 114, 115, 116, 117, 118, 119, 120, 121, 122, 123, 124, 125, 126, 127, 128, 129, 130, 131, 132, 133, 134, 135, 136, 137, 138, 139, 140, 141, 142, 143, 144, 145, 146, 147, 148, 149, 150, 151, 152, 153, 154, 155, 156, 157, 158, 159, 160, 161, 162, 163, 164, 165, 166, 167, 168, 169, 170, 171, 172, 173, 174, 175, 176, 177, 178, 179, 180, 181, 182, 183, 184, 185, 186, 187, 188, 189, 190, 191, 192, 193, 194, 195, 196, 197, 198, 199, 200, 201, 202, 203, 204, 205, 206, 207, 208, 209, 210, 211, 212, 213, 214, 215, 216, 217, 218, 219, 220, 221, 222, 223, 224, 225, 226, 227, 228, 229, 230, 231, 232, 233, 234, 235, 236, 237, 238, 239, 240, 241, 242, 243, 244, 245, 246, 247, 248, 249, 250, 251, 252, 253, 254, 255, 256, 257, 258, 259, 260, 261, 262, 263, 264, 265, 266, 267, 268, 269, 270, 271, 272, 273, 274, 275, 276, 277, 278, 279, 280, 281, 282, 283, 284, 285, 286, 287, 288, 289, 290, 291, 292, 293, 294, 295, 296, 297, 298, 299, 300, 301, 302, 303, 304, 305, 306, 307, 308, 309, 310, 311, 312, 313, 314, 315, 316, 317, 318, 319, 320, 321, 322, 323, 324, 325, 326, 327, 328, 329, 330, 331, 332, 333, 334, 335, 336, 337, 338, 339, 340, 341, 342, 343, 344, 345, 346, 347, 348, 349, 350, 351, 352, 353, 354, 355, 356, 357],
      "AcquisitionTime": ["192434.817500", "192436.325000", "192437.830000", "192439.337500", "192440.842500", "192442.350000", "192443.855000", "192445.360000", "192446.867500", "192448.372500", "192449.880000", "192451.385000", "192452.890000", "192454.397500", "192455.902500", "192457.410000", "192458.915000", "192500.420000", "192501.927500", "192503.432500", "192504.940000", "192506.445000", "192507.952500", "192509.457500", "192510.962500", "192512.470000", "192513.975000", "192515.482500", "192516.987500", "192518.492500", "192520.000000", "192521.505000", "192523.012500", "192524.517500", "192526.022500", "192527.530000", "192529.035000", "192530.542500", "192532.047500", "192533.552500", "192535.060000", "192536.565000", "192538.072500", "192539.577500", "192541.085000", "192542.590000", "192544.095000", "192545.602500", "192547.107500", "192548.615000", "192550.120000", "192551.625000", "192553.132500", "192554.637500", "192556.145000", "192557.650000", "192559.155000", "192600.662500", "192602.167500", "192603.675000", "192605.180000", "192606.685000", "192608.192500", "192609.697500", "192611.205000", "192612.710000", "192614.217500", "192615.722500", "192617.227500", "192618.735000", "192620.240000", "192621.747500", "192623.252500", "192624.757500", "192626.265000", "192627.770000", "192629.277500", "192630.782500", "192632.287500", "192633.795000", "192635.300000", "192636.807500", "192638.312500", "192639.817500", "192641.325000", "192642.830000", "192644.337500", "192645.842500", "192647.350000", "192648.855000", "192650.360000", "192651.867500", "192653.372500", "192654.880000", "192656.385000", "192657.890000", "192659.397500", "192700.902500", "192702.410000", "192703.915000", "192705.420000", "192706.927500", "192708.432500", "192709.940000", "192711.445000", "192712.952500", "192714.457500", "192715.962500", "192717.470000", "192718.975000", "192720.482500", "192721.987500", "192723.492500", "192725.000000", "192726.505000", "192728.012500", "192729.517500", "192731.022500", "192732.530000", "192734.035000", "192735.542500", "192737.047500", "192738.552500", "192740.060000", "192741.565000", "192743.072500", "192744.577500", "192746.085000", "192747.590000", "192749.095000", "192750.602500", "192752.107500", "192753.615000", "192755.120000", "192756.625000", "192758.132500", "192759.637500", "192801.145000", "192802.650000", "192804.155000", "192805.662500", "192807.167500", "192808.675000", "192810.180000", "192811.685000", "192813.192500", "192814.697500", "192816.205000", "192817.710000", "192819.217500", "192820.722500", "192822.227500", "192823.735000", "192825.240000", "192826.747500", "192828.252500", "192829.757500", "192831.265000", "192832.770000", "192834.277500", "192835.782500", "192837.287500", "192838.795000", "192840.300000", "192841.807500", "192843.312500", "192844.817500", "192846.325000", "192847.830000", "192849.337500", "192850.842500", "192852.350000", "192853.855000", "192855.360000", "192856.867500", "192858.372500", "192859.880000", "192901.385000", "192902.890000", "192904.397500", "192905.902500", "192907.410000", "192908.915000", "192910.420000", "192911.927500", "192913.432500", "192914.940000", "192916.445000", "192917.952500", "192919.457500", "192920.962500", "192922.470000", "192923.975000", "192925.482500", "192926.987500", "192928.492500", "192930.000000", "192931.505000", "192933.012500", "192934.517500", "192936.022500", "192937.530000", "192939.035000", "192940.542500", "192942.047500", "192943.552500", "192945.060000", "192946.565000", "192948.072500", "192949.577500", "192951.085000", "192952.590000", "192954.095000", "192955.602500", "192957.107500", "192958.615000", "193000.120000", "193001.625000", "193003.132500", "193004.637500", "193006.145000", "193007.650000", "193009.155000", "193010.662500", "193012.167500", "193013.675000", "193015.180000", "193016.685000", "193018.192500", "193019.697500", "193021.205000", "193022.710000", "193024.217500", "193025.722500", "193027.227500", "193028.735000", "193030.240000", "193031.747500", "193033.252500", "193034.757500", "193036.265000", "193037.770000", "193039.277500", "193040.782500", "193042.287500", "193043.795000", "193045.300000", "193046.807500", "193048.312500", "193049.817500", "193051.325000", "193052.830000", "193054.337500", "193055.842500", "193057.350000", "193058.855000", "193100.360000", "193101.867500", "193103.372500", "193104.880000", "193106.385000", "193107.890000", "193109.397500", "193110.902500", "193112.410000", "193113.915000", "193115.420000", "193116.927500", "193118.432500", "193119.940000", "193121.445000", "193122.952500", "193124.457500", "193125.962500", "193127.470000", "193128.975000", "193130.482500", "193131.987500", "193133.492500", "193135.000000", "193136.505000", "193138.012500", "193139.517500", "193141.022500", "193142.530000", "193144.035000", "193145.542500", "193147.047500", "193148.552500", "193150.060000", "193151.565000", "193153.072500", "193154.577500", "193156.085000", "193157.590000", "193159.095000", "193200.602500", "193202.107500", "193203.615000", "193205.120000", "193206.625000", "193208.132500", "193209.637500", "193211.145000", "193212.650000", "193214.155000", "193215.662500", "193217.167500", "193218.675000", "193220.180000", "193221.685000", "193223.192500", "193224.697500", "193226.205000", "193227.710000", "193229.217500", "193230.722500", "193232.227500", "193233.735000", "193235.240000", "193236.747500", "193238.252500", "193239.757500", "193241.265000", "193242.770000", "193244.277500", "193245.782500", "193247.287500", "193248.795000", "193250.300000", "193251.807500", "193253.312500", "193254.817500", "193256.325000", "193257.830000", "193259.337500", "193300.842500", "193302.350000", "193303.855000", "193305.360000", "193306.867500", "193308.372500", "193309.880000", "193311.385000", "193312.890000", "193314.397500", "193315.902500", "193317.410000", "193318.915000", "193320.420000", "193321.927500", "193323.432500", "193324.940000", "193326.445000", "193327.952500", "193329.457500", "193330.962500"],
      "ContentTime": ["193607.484000", "193607.484000", "193607.484000", "193607.500000", "193607.500000", "193707.484000", "193707.484000", "193707.484000", "193707.484000", "193707.484000", "193707.500000", "193707.500000", "193707.500000", "193707.500000", "193707.500000", "193707.500000", "193707.515000", "193707.515000", "193707.515000", "193707.515000", "193707.515000", "193707.531000", "193707.531000", "193707.531000", "193707.531000", "193707.531000", "193707.531000", "193707.531000", "193707.531000", "193707.531000", "193707.546000", "193707.546000", "193807.484000", "193807.484000", "193807.484000", "193807.484000", "193807.484000", "193807.500000", "193807.500000", "193807.500000", "193807.500000", "193807.500000", "193807.500000", "193807.500000", "193807.500000", "193807.500000", "193807.515000", "193807.515000", "193807.515000", "193807.515000", "193807.515000", "193807.515000", "193807.515000", "193807.515000", "193807.531000", "193807.531000", "193807.531000", "193807.531000", "193907.484000", "193907.484000", "193907.484000", "193907.484000", "193907.484000", "193907.500000", "193907.500000", "193907.500000", "193907.500000", "193907.500000", "193907.500000", "193907.500000", "193907.515000", "193907.515000", "193907.515000", "193907.515000", "193907.515000", "193907.531000", "193907.531000", "193907.531000", "193907.531000", "193907.531000", "193907.531000", "193907.546000", "193907.546000", "193907.546000", "194007.484000", "194007.484000", "194007.484000", "194007.484000", "194007.484000", "194007.500000", "194007.500000", "194007.500000", "194007.500000", "194007.500000", "194007.500000", "194007.515000", "194007.515000", "194007.515000", "194007.515000", "194007.515000", "194007.515000", "194007.515000", "194007.515000", "194007.515000", "194007.531000", "194007.531000", "194007.531000", "194007.531000", "194007.531000", "194007.531000", "194107.484000", "194107.484000", "194107.500000", "194107.500000", "194107.500000", "194107.515000", "194107.515000", "194107.515000", "194107.515000", "194107.515000", "194107.515000", "194107.531000", "194107.531000", "194107.531000", "194107.531000", "194107.531000", "194107.531000", "194107.531000", "194107.531000", "194107.546000", "194107.546000", "194107.546000", "194107.546000", "194107.546000", "194107.562000", "194107.562000", "194207.484000", "194207.484000", "194207.484000", "194207.484000", "194207.484000", "194207.500000", "194207.500000", "194207.500000", "194207.500000", "194207.500000", "194207.515000", "194207.515000", "194207.515000", "194207.515000", "194207.515000", "194207.515000", "194207.515000", "194207.515000", "194207.515000", "194207.531000", "194207.531000", "194207.531000", "194207.531000", "194207.531000", "194207.531000", "194207.531000", "194307.484000", "194307.484000", "194307.484000", "194307.484000", "194307.484000", "194307.500000", "194307.500000", "194307.500000", "194307.500000", "194307.515000", "194307.515000", "194307.515000", "194307.515000", "194307.515000", "194307.515000", "194307.531000", "194307.531000", "194307.531000", "194307.531000", "194307.531000", "194307.531000", "194307.531000", "194307.531000", "194307.531000", "194307.546000", "194307.546000", "194407.484000", "194407.484000", "194407.484000", "194407.500000", "194407.500000", "194407.515000", "194407.515000", "194407.515000", "194407.515000", "194407.515000", "194407.515000", "194407.515000", "194407.515000", "194407.515000", "194407.531000", "194407.531000", "194407.531000", "194407.531000", "194407.531000", "194407.531000", "194407.531000", "194407.531000", "194407.531000", "194407.546000", "194407.546000", "194407.546000", "194507.484000", "194507.484000", "194507.484000", "194507.484000", "194507.484000", "194507.500000", "194507.500000", "194507.531000", "194507.531000", "194507.531000", "194507.531000", "194507.531000", "194507.531000", "194507.531000", "194507.531000", "194507.546000", "194507.546000", "194507.546000", "194507.546000", "194507.546000", "194507.546000", "194507.562000", "194507.562000", "194507.562000", "194507.562000", "194507.562000", "194547.484000", "194547.484000", "194547.484000", "194547.484000", "194547.484000", "194547.500000", "194547.500000", "194547.500000", "194547.500000", "194547.500000", "194547.500000", "194547.500000", "194547.500000", "194547.500000", "194547.515000", "194547.515000", "194547.515000", "194647.484000", "194647.484000", "194647.484000", "194647.484000", "194647.500000", "194647.500000", "194647.500000", "194647.500000", "194647.500000", "194647.500000", "194647.500000", "194647.515000", "194647.515000", "194647.515000", "194647.515000", "194647.515000", "194647.531000", "194647.531000", "194647.531000", "194647.531000", "194647.531000", "194647.531000", "194647.531000", "194647.531000", "194647.531000", "194647.546000", "194747.484000", "194747.484000", "194747.484000", "194747.500000", "194747.500000", "194747.500000", "194747.500000", "194747.500000", "194747.515000", "194747.515000", "194747.515000", "194747.515000", "194747.515000", "194747.515000", "194747.515000", "194747.515000", "194747.515000", "194747.531000", "194747.531000", "194747.531000", "194747.531000", "194747.531000", "194747.531000", "194747.531000", "194747.531000", "194747.531000", "194847.484000", "194847.484000", "194847.484000", "194847.484000", "194847.484000", "194847.484000", "194847.500000", "194847.500000", "194847.500000", "194847.500000", "194847.500000", "194847.500000", "194847.500000", "194847.500000", "194847.500000", "194847.515000", "194847.515000", "194847.515000", "194847.515000", "194847.515000", "194847.515000", "194847.515000", "194847.515000", "194847.515000", "194847.531000", "194847.531000", "194936.984000", "194937.000000", "194937.000000", "194937.000000", "194937.000000", "194937.015000", "194937.015000", "194937.015000", "194937.015000", "194937.015000", "194937.015000", "194937.015000", "194937.015000", "194937.031000", "194937.031000", "194937.031000", "194937.031000", "194937.031000", "194937.046000", "194937.046000", "194937.046000", "194937.046000"],
      "DataSetTrailingPadding": [
        "\u0000\u0000\u0000\u0000\u0000\u0000\u0000\u0000\u0000\u0000\u0000\u0000\u0000\u0000\u0000\u0000\u0000\u0000\u0000\u0000\u0000\u0000\u0000\u0000\u0000\u0000\u0000\u0000\u0000\u0000\u0000\u0000\u0000\u0000\u0000\u0000\u0000\u0000\u0000\u0000\u0000\u0000",
        "\u0000\u0000\u0000\u0000\u0000\u0000\u0000\u0000\u0000\u0000\u0000\u0000\u0000\u0000\u0000\u0000\u0000\u0000\u0000\u0000\u0000\u0000\u0000\u0000\u0000\u0000\u0000\u0000\u0000\u0000\u0000\u0000\u0000\u0000\u0000\u0000\u0000\u0000\u0000\u0000",
        "\u0000\u0000\u0000\u0000\u0000\u0000\u0000\u0000\u0000\u0000\u0000\u0000\u0000\u0000\u0000\u0000\u0000\u0000\u0000\u0000\u0000\u0000\u0000\u0000\u0000\u0000\u0000\u0000\u0000\u0000\u0000\u0000\u0000\u0000\u0000\u0000\u0000\u0000\u0000\u0000",
        "\u0000\u0000\u0000\u0000\u0000\u0000\u0000\u0000\u0000\u0000\u0000\u0000\u0000\u0000\u0000\u0000\u0000\u0000\u0000\u0000\u0000\u0000\u0000\u0000\u0000\u0000\u0000\u0000\u0000\u0000\u0000\u0000\u0000\u0000\u0000\u0000\u0000\u0000\u0000\u0000",
        "\u0000\u0000\u0000\u0000\u0000\u0000\u0000\u0000\u0000\u0000\u0000\u0000\u0000\u0000\u0000\u0000\u0000\u0000\u0000\u0000\u0000\u0000\u0000\u0000\u0000\u0000\u0000\u0000\u0000\u0000\u0000\u0000\u0000\u0000\u0000\u0000\u0000\u0000\u0000\u0000\u0000\u0000",
        "\u0000\u0000\u0000\u0000\u0000\u0000\u0000\u0000\u0000\u0000\u0000\u0000\u0000\u0000\u0000\u0000\u0000\u0000\u0000\u0000\u0000\u0000\u0000\u0000\u0000\u0000\u0000\u0000\u0000\u0000\u0000\u0000\u0000\u0000\u0000\u0000\u0000\u0000\u0000\u0000\u0000\u0000",
        "\u0000\u0000\u0000\u0000\u0000\u0000\u0000\u0000\u0000\u0000\u0000\u0000\u0000\u0000\u0000\u0000\u0000\u0000\u0000\u0000\u0000\u0000\u0000\u0000\u0000\u0000\u0000\u0000\u0000\u0000\u0000\u0000\u0000\u0000\u0000\u0000\u0000\u0000\u0000\u0000",
        "\u0000\u0000\u0000\u0000\u0000\u0000\u0000\u0000\u0000\u0000\u0000\u0000\u0000\u0000\u0000\u0000\u0000\u0000\u0000\u0000\u0000\u0000\u0000\u0000\u0000\u0000\u0000\u0000\u0000\u0000\u0000\u0000\u0000\u0000\u0000\u0000\u0000\u0000\u0000\u0000",
        "\u0000\u0000\u0000\u0000\u0000\u0000\u0000\u0000\u0000\u0000\u0000\u0000\u0000\u0000\u0000\u0000\u0000\u0000\u0000\u0000\u0000\u0000\u0000\u0000\u0000\u0000\u0000\u0000\u0000\u0000\u0000\u0000\u0000\u0000\u0000\u0000\u0000\u0000\u0000\u0000",
        "\u0000\u0000\u0000\u0000\u0000\u0000\u0000\u0000\u0000\u0000\u0000\u0000\u0000\u0000\u0000\u0000\u0000\u0000\u0000\u0000\u0000\u0000\u0000\u0000\u0000\u0000\u0000\u0000\u0000\u0000\u0000\u0000\u0000\u0000\u0000\u0000\u0000\u0000",
        "\u0000\u0000\u0000\u0000\u0000\u0000\u0000\u0000\u0000\u0000\u0000\u0000\u0000\u0000\u0000\u0000\u0000\u0000\u0000\u0000\u0000\u0000\u0000\u0000\u0000\u0000\u0000\u0000\u0000\u0000\u0000\u0000\u0000\u0000\u0000\u0000\u0000\u0000",
        "\u0000\u0000\u0000\u0000\u0000\u0000\u0000\u0000\u0000\u0000\u0000\u0000\u0000\u0000\u0000\u0000\u0000\u0000\u0000\u0000\u0000\u0000\u0000\u0000\u0000\u0000\u0000\u0000\u0000\u0000\u0000\u0000\u0000\u0000\u0000\u0000",
        "\u0000\u0000\u0000\u0000\u0000\u0000\u0000\u0000\u0000\u0000\u0000\u0000\u0000\u0000\u0000\u0000\u0000\u0000\u0000\u0000\u0000\u0000\u0000\u0000\u0000\u0000\u0000\u0000\u0000\u0000\u0000\u0000\u0000\u0000\u0000\u0000",
        "\u0000\u0000\u0000\u0000\u0000\u0000\u0000\u0000\u0000\u0000\u0000\u0000\u0000\u0000\u0000\u0000\u0000\u0000\u0000\u0000\u0000\u0000\u0000\u0000\u0000\u0000\u0000\u0000\u0000\u0000\u0000\u0000\u0000\u0000\u0000\u0000",
        "\u0000\u0000\u0000\u0000\u0000\u0000\u0000\u0000\u0000\u0000\u0000\u0000\u0000\u0000\u0000\u0000\u0000\u0000\u0000\u0000\u0000\u0000\u0000\u0000\u0000\u0000\u0000\u0000\u0000\u0000\u0000\u0000\u0000\u0000\u0000\u0000\u0000\u0000",
        "\u0000\u0000\u0000\u0000\u0000\u0000\u0000\u0000\u0000\u0000\u0000\u0000\u0000\u0000\u0000\u0000\u0000\u0000\u0000\u0000\u0000\u0000\u0000\u0000\u0000\u0000\u0000\u0000\u0000\u0000\u0000\u0000\u0000\u0000\u0000\u0000\u0000\u0000",
        "\u0000\u0000\u0000\u0000\u0000\u0000\u0000\u0000\u0000\u0000\u0000\u0000\u0000\u0000\u0000\u0000\u0000\u0000\u0000\u0000\u0000\u0000\u0000\u0000\u0000\u0000\u0000\u0000\u0000\u0000\u0000\u0000\u0000\u0000\u0000\u0000",
        "\u0000\u0000\u0000\u0000\u0000\u0000\u0000\u0000\u0000\u0000\u0000\u0000\u0000\u0000\u0000\u0000\u0000\u0000\u0000\u0000\u0000\u0000\u0000\u0000\u0000\u0000\u0000\u0000\u0000\u0000\u0000\u0000\u0000\u0000\u0000\u0000",
        "\u0000\u0000\u0000\u0000\u0000\u0000\u0000\u0000\u0000\u0000\u0000\u0000\u0000\u0000\u0000\u0000\u0000\u0000\u0000\u0000\u0000\u0000\u0000\u0000\u0000\u0000\u0000\u0000\u0000\u0000\u0000\u0000\u0000\u0000\u0000\u0000",
        "\u0000\u0000\u0000\u0000\u0000\u0000\u0000\u0000\u0000\u0000\u0000\u0000\u0000\u0000\u0000\u0000\u0000\u0000\u0000\u0000\u0000\u0000\u0000\u0000\u0000\u0000\u0000\u0000\u0000\u0000\u0000\u0000\u0000\u0000\u0000\u0000\u0000\u0000",
        "\u0000\u0000\u0000\u0000\u0000\u0000\u0000\u0000\u0000\u0000\u0000\u0000\u0000\u0000\u0000\u0000\u0000\u0000\u0000\u0000\u0000\u0000\u0000\u0000\u0000\u0000\u0000\u0000\u0000\u0000\u0000\u0000\u0000\u0000\u0000\u0000\u0000\u0000",
        "\u0000\u0000\u0000\u0000\u0000\u0000\u0000\u0000\u0000\u0000\u0000\u0000\u0000\u0000\u0000\u0000\u0000\u0000\u0000\u0000\u0000\u0000\u0000\u0000\u0000\u0000\u0000\u0000\u0000\u0000\u0000\u0000\u0000\u0000\u0000\u0000",
        "\u0000\u0000\u0000\u0000\u0000\u0000\u0000\u0000\u0000\u0000\u0000\u0000\u0000\u0000\u0000\u0000\u0000\u0000\u0000\u0000\u0000\u0000\u0000\u0000\u0000\u0000\u0000\u0000\u0000\u0000\u0000\u0000\u0000\u0000\u0000\u0000\u0000\u0000",
        "\u0000\u0000\u0000\u0000\u0000\u0000\u0000\u0000\u0000\u0000\u0000\u0000\u0000\u0000\u0000\u0000\u0000\u0000\u0000\u0000\u0000\u0000\u0000\u0000\u0000\u0000\u0000\u0000\u0000\u0000\u0000\u0000\u0000\u0000\u0000\u0000\u0000\u0000",
        "\u0000\u0000\u0000\u0000\u0000\u0000\u0000\u0000\u0000\u0000\u0000\u0000\u0000\u0000\u0000\u0000\u0000\u0000\u0000\u0000\u0000\u0000\u0000\u0000\u0000\u0000\u0000\u0000\u0000\u0000\u0000\u0000\u0000\u0000\u0000\u0000\u0000\u0000",
        "\u0000\u0000\u0000\u0000\u0000\u0000\u0000\u0000\u0000\u0000\u0000\u0000\u0000\u0000\u0000\u0000\u0000\u0000\u0000\u0000\u0000\u0000\u0000\u0000\u0000\u0000\u0000\u0000\u0000\u0000\u0000\u0000\u0000\u0000\u0000\u0000\u0000\u0000",
        "\u0000\u0000\u0000\u0000\u0000\u0000\u0000\u0000\u0000\u0000\u0000\u0000\u0000\u0000\u0000\u0000\u0000\u0000\u0000\u0000\u0000\u0000\u0000\u0000\u0000\u0000\u0000\u0000\u0000\u0000\u0000\u0000\u0000\u0000\u0000\u0000",
        "\u0000\u0000\u0000\u0000\u0000\u0000\u0000\u0000\u0000\u0000\u0000\u0000\u0000\u0000\u0000\u0000\u0000\u0000\u0000\u0000\u0000\u0000\u0000\u0000\u0000\u0000\u0000\u0000\u0000\u0000\u0000\u0000\u0000\u0000\u0000\u0000",
        "\u0000\u0000\u0000\u0000\u0000\u0000\u0000\u0000\u0000\u0000\u0000\u0000\u0000\u0000\u0000\u0000\u0000\u0000\u0000\u0000\u0000\u0000\u0000\u0000\u0000\u0000\u0000\u0000\u0000\u0000\u0000\u0000\u0000\u0000\u0000\u0000\u0000\u0000",
        "\u0000\u0000\u0000\u0000\u0000\u0000\u0000\u0000\u0000\u0000\u0000\u0000\u0000\u0000\u0000\u0000\u0000\u0000\u0000\u0000\u0000\u0000\u0000\u0000\u0000\u0000\u0000\u0000\u0000\u0000\u0000\u0000\u0000\u0000\u0000\u0000\u0000\u0000",
        "\u0000\u0000\u0000\u0000\u0000\u0000\u0000\u0000\u0000\u0000\u0000\u0000\u0000\u0000\u0000\u0000\u0000\u0000\u0000\u0000\u0000\u0000\u0000\u0000\u0000\u0000\u0000\u0000\u0000\u0000\u0000\u0000\u0000\u0000\u0000\u0000\u0000\u0000",
        "\u0000\u0000\u0000\u0000\u0000\u0000\u0000\u0000\u0000\u0000\u0000\u0000\u0000\u0000\u0000\u0000\u0000\u0000\u0000\u0000\u0000\u0000\u0000\u0000\u0000\u0000\u0000\u0000\u0000\u0000\u0000\u0000\u0000\u0000\u0000\u0000",
        "\u0000\u0000\u0000\u0000\u0000\u0000\u0000\u0000\u0000\u0000\u0000\u0000\u0000\u0000\u0000\u0000\u0000\u0000\u0000\u0000\u0000\u0000\u0000\u0000\u0000\u0000\u0000\u0000\u0000\u0000\u0000\u0000\u0000\u0000\u0000\u0000",
        "\u0000\u0000\u0000\u0000\u0000\u0000\u0000\u0000\u0000\u0000\u0000\u0000\u0000\u0000\u0000\u0000\u0000\u0000\u0000\u0000\u0000\u0000\u0000\u0000\u0000\u0000\u0000\u0000\u0000\u0000\u0000\u0000\u0000\u0000\u0000\u0000\u0000\u0000",
        "\u0000\u0000\u0000\u0000\u0000\u0000\u0000\u0000\u0000\u0000\u0000\u0000\u0000\u0000\u0000\u0000\u0000\u0000\u0000\u0000\u0000\u0000\u0000\u0000\u0000\u0000\u0000\u0000\u0000\u0000\u0000\u0000\u0000\u0000\u0000\u0000\u0000\u0000",
        "\u0000\u0000\u0000\u0000\u0000\u0000\u0000\u0000\u0000\u0000\u0000\u0000\u0000\u0000\u0000\u0000\u0000\u0000\u0000\u0000\u0000\u0000\u0000\u0000\u0000\u0000\u0000\u0000\u0000\u0000\u0000\u0000\u0000\u0000\u0000\u0000\u0000\u0000",
        "\u0000\u0000\u0000\u0000\u0000\u0000\u0000\u0000\u0000\u0000\u0000\u0000\u0000\u0000\u0000\u0000\u0000\u0000\u0000\u0000\u0000\u0000\u0000\u0000\u0000\u0000\u0000\u0000\u0000\u0000\u0000\u0000\u0000\u0000\u0000\u0000",
        "\u0000\u0000\u0000\u0000\u0000\u0000\u0000\u0000\u0000\u0000\u0000\u0000\u0000\u0000\u0000\u0000\u0000\u0000\u0000\u0000\u0000\u0000\u0000\u0000\u0000\u0000\u0000\u0000\u0000\u0000\u0000\u0000\u0000\u0000\u0000\u0000",
        "\u0000\u0000\u0000\u0000\u0000\u0000\u0000\u0000\u0000\u0000\u0000\u0000\u0000\u0000\u0000\u0000\u0000\u0000\u0000\u0000\u0000\u0000\u0000\u0000\u0000\u0000\u0000\u0000\u0000\u0000\u0000\u0000\u0000\u0000\u0000\u0000\u0000\u0000",
        "\u0000\u0000\u0000\u0000\u0000\u0000\u0000\u0000\u0000\u0000\u0000\u0000\u0000\u0000\u0000\u0000\u0000\u0000\u0000\u0000\u0000\u0000\u0000\u0000\u0000\u0000\u0000\u0000\u0000\u0000\u0000\u0000\u0000\u0000\u0000\u0000\u0000\u0000\u0000\u0000",
        "\u0000\u0000\u0000\u0000\u0000\u0000\u0000\u0000\u0000\u0000\u0000\u0000\u0000\u0000\u0000\u0000\u0000\u0000\u0000\u0000\u0000\u0000\u0000\u0000\u0000\u0000\u0000\u0000\u0000\u0000\u0000\u0000\u0000\u0000\u0000\u0000\u0000\u0000",
        "\u0000\u0000\u0000\u0000\u0000\u0000\u0000\u0000\u0000\u0000\u0000\u0000\u0000\u0000\u0000\u0000\u0000\u0000\u0000\u0000\u0000\u0000\u0000\u0000\u0000\u0000\u0000\u0000\u0000\u0000\u0000\u0000\u0000\u0000\u0000\u0000",
        "\u0000\u0000\u0000\u0000\u0000\u0000\u0000\u0000\u0000\u0000\u0000\u0000\u0000\u0000\u0000\u0000\u0000\u0000\u0000\u0000\u0000\u0000\u0000\u0000\u0000\u0000\u0000\u0000\u0000\u0000\u0000\u0000\u0000\u0000\u0000\u0000",
