{
  "AcquisitionMatrixPE": 110,
  "AcquisitionNumber": 1,
  "AcquisitionTime": "19:14:40.240000",
  "BandwidthPerPixelPhaseEncode": 26.35,
  "BaseResolution": 110,
  "CoilString": "C:HEA;HEP",
  "ConversionSoftware": "dcm2niix",
  "ConversionSoftwareVersion": "v1.0.20190410  GCC6.3.0",
  "DerivedVendorReportedEchoSpacing": 0.000690012,
  "DeviceSerialNumber": "35422",
  "DwellTime": 2.6e-06,
  "EchoTime": 0.03,
  "EffectiveEchoSpacing": 0.000345006,
  "FlipAngle": 85,
  "ImageComments": "Unaliased_MB4_PE4_LB",
  "ImageOrientationPatientDICOM": [0.999997, -0.000317045, -0.00238999, 2.17736e-10, 0.991316, -0.131503],
  "ImageType": [
    "ORIGINAL",
    "PRIMARY",
    "FMRI",
    "NONE",
    "MB",
    "ND",
    "MOSAIC"
],
  "ImagingFrequency": 123.178,
  "InPlanePhaseEncodingDirectionDICOM": "ROW",
  "InstitutionAddress": "kwanakro_599_C4F276_Seoul_KR_ZIP",
  "InstitutionName": "SNUBIC",
  "InstitutionalDepartmentName": "Department",
  "MRAcquisitionType": "2D",
  "MagneticFieldStrength": 3,
  "Manufacturer": "Siemens",
  "ManufacturersModelName": "TrioTim",
  "Modality": "MR",
  "MultibandAccelerationFactor": 4,
  "ParallelReductionFactorInPlane": 2,
  "PartialFourier": 1,
  "PatientPosition": "HFS",
  "PercentPhaseFOV": 100,
  "PhaseEncodingDirection": "i-",
  "PhaseEncodingSteps": 110,
  "PhaseResolution": 1,
  "PixelBandwidth": 1748,
  "ProcedureStepDescription": "SNU_SAVED",
  "ProtocolName": "WMGNG1_MB4_LR_SBRef",
  "PulseSequenceDetails": "%CustomerSeq%_cmrr_mbep2d_bold",
  "ReceiveCoilName": "32Ch_Head",
  "ReconMatrixPE": 110,
  "RefLinesPE": 32,
  "RepetitionTime": 1.5,
  "SAR": 0.147833,
  "ScanOptions": "FS",
  "ScanningSequence": "EP",
  "SequenceName": "epfid2d1_110",
  "SequenceVariant": "SK_SS",
  "SeriesDescription": "WMGNG1_MB4_LR_SBRef",
  "SeriesNumber": 18,
  "ShimSetting": [-4141, -29851, -2060, 486, -100, 192, -4, -5],
  "SliceThickness": 2.3,
  "SliceTiming": [0, 0.6575, 1.3175, 0.47, 1.1275, 0.2825, 0.94, 0.0925, 0.7525, 1.41, 0.5625, 1.2225, 0.375, 1.035, 0.1875, 0.845, 0, 0.6575, 1.3175, 0.47, 1.1275, 0.2825, 0.94, 0.0925, 0.7525, 1.41, 0.5625, 1.2225, 0.375, 1.035, 0.1875, 0.845, 0, 0.6575, 1.3175, 0.47, 1.1275, 0.2825, 0.94, 0.0925, 0.7525, 1.41, 0.5625, 1.2225, 0.375, 1.035, 0.1875, 0.845, 0, 0.6575, 1.3175, 0.47, 1.1275, 0.2825, 0.94, 0.0925, 0.7525, 1.41, 0.5625, 1.2225, 0.375, 1.035, 0.1875, 0.845],
  "SoftwareVersions": "syngo_MR_B17",
  "SpacingBetweenSlices": 2.3,
  "StationName": "MRC35422",
  "TaskName": "wmgng",
  "TotalReadoutTime": 0.0376057,
  "TxRefAmp": 364.503,
  "dcmmeta_affine": [
    [-2.327265977859497, 5.067314901019415e-10, -0.005545142572373152, 131.9332275390625],
    [0.0007378493901342154, 2.3070621490478516, -0.30245575308799744, -98.83082580566406],
    [-0.005562168546020985, 0.3060430586338043, 2.280019760131836, -60.00312805175781],
    [0.0, 0.0, 0.0, 1.0]
],
  "dcmmeta_reorient_transform": [
    [0.0, -1.0, 0.0, 109.0],
    [1.0, 0.0, 0.0, 0.0],
    [0.0, 0.0, 1.0, 0.0],
    [0.0, 0.0, 0.0, 1.0]
],
  "dcmmeta_shape": [110, 110, 64, 357],
  "dcmmeta_slice_dim": 2,
  "dcmmeta_version": 0.6,
  "global": {
    "const": {
      "AcquisitionMatrix": [0, 110, 110, 0],
      "AngioFlag": "N",
      "BitsAllocated": 16,
      "BitsStored": 12,
      "Columns": 880,
      "EchoNumbers": 1,
      "EchoTime": 30.0,
      "EchoTrainLength": 1,
      "FlipAngle": 85.0,
      "HighBit": 11,
      "ImageOrientationPatient": [0.99999709370041, -0.000317044665, -0.0023899944383, 2.177362e-10, 0.99131578783077, -0.1315028851298],
      "ImagePositionPatient": [-1027.9306014714, -1040.5737899538, 93.323581863132],
      "ImageType": [
        "ORIGINAL",
        "PRIMARY",
        "FMRI",
        "NONE",
        "MB",
        "ND",
        "MOSAIC"
],
      "ImagedNucleus": "1H",
      "ImagingFrequency": 123.177553,
      "InPlanePhaseEncodingDirection": "ROW",
      "MRAcquisitionType": "2D",
      "MagneticFieldStrength": 3.0,
      "Manufacturer": "SIEMENS",
      "ManufacturerModelName": "TrioTim",
      "Modality": "MR",
      "NumberOfAverages": 1.0,
      "NumberOfPhaseEncodingSteps": 110,
      "PercentPhaseFieldOfView": 100.0,
      "PercentSampling": 100.0,
      "PerformedProcedureStepStartTime": "183734.984000",
      "PhotometricInterpretation": "MONOCHROME2",
      "PixelBandwidth": 1748.0,
      "PixelRepresentation": 0,
      "PixelSpacing": [2.3272726535797, 2.3272726535797],
      "ProtocolName": "WMGNG1_MB4_LR_SBRef",
      "ReferencedPerformedProcedureStepSequence": [
        {
          "ReferencedSOPClassUID": "1.2.840.10008.3.1.2.3.3",
          "ReferencedSOPInstanceUID": "1.3.12.2.1107.5.2.32.35422.30000019122407124248400000001"}
],
      "RepetitionTime": 1500.0,
      "Rows": 880,
      "SAR": 0.14783278603643,
      "SamplesPerPixel": 1,
      "ScanOptions": "FS",
      "ScanningSequence": "EP",
      "SequenceName": "epfid2d1_110",
      "SequenceVariant": [
        "SK",
        "SS"
],
      "SeriesDescription": "WMGNG1_MB4_LR_SBRef",
      "SeriesNumber": 18,
      "SeriesTime": "192200.687000",
      "SliceLocation": -46.803456943139,
      "SliceThickness": 2.2999999523163,
      "SmallestImagePixelValue": 0,
      "SoftwareVersions": "syngo MR B17",
      "SpacingBetweenSlices": 2.3000000450976,
      "SpecificCharacterSet": "ISO_IR 100",
      "StudyID": "1",
      "StudyTime": "183734.937000",
      "TransmitCoilName": "Body",
      "VariableFlipAngleFlag": "N",
      "WindowCenterWidthExplanation": "Algo1",
      "dBdt": 0.0},
    "slices": {}
  },
  "time": {
    "samples": {
      "AcquisitionNumber": [1, 2, 3, 4, 5, 6, 7, 8, 9, 10, 11, 12, 13, 14, 15, 16, 17, 18, 19, 20, 21, 22, 23, 24, 25, 26, 27, 28, 29, 30, 31, 32, 33, 34, 35, 36, 37, 38, 39, 40, 41, 42, 43, 44, 45, 46, 47, 48, 49, 50, 51, 52, 53, 54, 55, 56, 57, 58, 59, 60, 61, 62, 63, 64, 65, 66, 67, 68, 69, 70, 71, 72, 73, 74, 75, 76, 77, 78, 79, 80, 81, 82, 83, 84, 85, 86, 87, 88, 89, 90, 91, 92, 93, 94, 95, 96, 97, 98, 99, 100, 101, 102, 103, 104, 105, 106, 107, 108, 109, 110, 111, 112, 113, 114, 115, 116, 117, 118, 119, 120, 121, 122, 123, 124, 125, 126, 127, 128, 129, 130, 131, 132, 133, 134, 135, 136, 137, 138, 139, 140, 141, 142, 143, 144, 145, 146, 147, 148, 149, 150, 151, 152, 153, 154, 155, 156, 157, 158, 159, 160, 161, 162, 163, 164, 165, 166, 167, 168, 169, 170, 171, 172, 173, 174, 175, 176, 177, 178, 179, 180, 181, 182, 183, 184, 185, 186, 187, 188, 189, 190, 191, 192, 193, 194, 195, 196, 197, 198, 199, 200, 201, 202, 203, 204, 205, 206, 207, 208, 209, 210, 211, 212, 213, 214, 215, 216, 217, 218, 219, 220, 221, 222, 223, 224, 225, 226, 227, 228, 229, 230, 231, 232, 233, 234, 235, 236, 237, 238, 239, 240, 241, 242, 243, 244, 245, 246, 247, 248, 249, 250, 251, 252, 253, 254, 255, 256, 257, 258, 259, 260, 261, 262, 263, 264, 265, 266, 267, 268, 269, 270, 271, 272, 273, 274, 275, 276, 277, 278, 279, 280, 281, 282, 283, 284, 285, 286, 287, 288, 289, 290, 291, 292, 293, 294, 295, 296, 297, 298, 299, 300, 301, 302, 303, 304, 305, 306, 307, 308, 309, 310, 311, 312, 313, 314, 315, 316, 317, 318, 319, 320, 321, 322, 323, 324, 325, 326, 327, 328, 329, 330, 331, 332, 333, 334, 335, 336, 337, 338, 339, 340, 341, 342, 343, 344, 345, 346, 347, 348, 349, 350, 351, 352, 353, 354, 355, 356, 357],
      "AcquisitionTime": ["191440.240000", "191441.745000", "191443.250000", "191444.757500", "191446.262500", "191447.770000", "191449.275000", "191450.782500", "191452.287500", "191453.792500", "191455.300000", "191456.805000", "191458.312500", "191459.817500", "191501.322500", "191502.830000", "191504.335000", "191505.842500", "191507.347500", "191508.852500", "191510.360000", "191511.865000", "191513.372500", "191514.877500", "191516.382500", "191517.890000", "191519.395000", "191520.902500", "191522.407500", "191523.915000", "191525.420000", "191526.925000", "191528.432500", "191529.937500", "191531.445000", "191532.950000", "191534.455000", "191535.962500", "191537.467500", "191538.975000", "191540.480000", "191541.985000", "191543.492500", "191544.997500", "191546.505000", "191548.010000", "191549.517500", "191551.022500", "191552.527500", "191554.035000", "191555.540000", "191557.047500", "191558.552500", "191600.057500", "191601.565000", "191603.070000", "191604.577500", "191606.082500", "191607.587500", "191609.095000", "191610.600000", "191612.107500", "191613.612500", "191615.117500", "191616.625000", "191618.130000", "191619.637500", "191621.142500", "191622.650000", "191624.155000", "191625.660000", "191627.167500", "191628.672500", "191630.180000", "191631.685000", "191633.190000", "191634.697500", "191636.202500", "191637.710000", "191639.215000", "191640.720000", "191642.227500", "191643.732500", "191645.240000", "191646.745000", "191648.250000", "191649.757500", "191651.262500", "191652.770000", "191654.275000", "191655.782500", "191657.287500", "191658.792500", "191700.300000", "191701.805000", "191703.312500", "191704.817500", "191706.322500", "191707.830000", "191709.335000", "191710.842500", "191712.347500", "191713.852500", "191715.360000", "191716.865000", "191718.372500", "191719.877500", "191721.382500", "191722.890000", "191724.395000", "191725.902500", "191727.407500", "191728.915000", "191730.420000", "191731.925000", "191733.432500", "191734.937500", "191736.445000", "191737.950000", "191739.455000", "191740.962500", "191742.467500", "191743.975000", "191745.480000", "191746.985000", "191748.492500", "191749.997500", "191751.505000", "191753.010000", "191754.517500", "191756.022500", "191757.527500", "191759.035000", "191800.540000", "191802.047500", "191803.552500", "191805.057500", "191806.565000", "191808.070000", "191809.577500", "191811.082500", "191812.587500", "191814.095000", "191815.600000", "191817.107500", "191818.612500", "191820.117500", "191821.625000", "191823.130000", "191824.637500", "191826.142500", "191827.650000", "191829.155000", "191830.660000", "191832.167500", "191833.672500", "191835.180000", "191836.685000", "191838.190000", "191839.697500", "191841.202500", "191842.710000", "191844.215000", "191845.720000", "191847.227500", "191848.732500", "191850.240000", "191851.745000", "191853.250000", "191854.757500", "191856.262500", "191857.770000", "191859.275000", "191900.782500", "191902.287500", "191903.792500", "191905.300000", "191906.805000", "191908.312500", "191909.817500", "191911.322500", "191912.830000", "191914.335000", "191915.842500", "191917.347500", "191918.852500", "191920.360000", "191921.865000", "191923.372500", "191924.877500", "191926.382500", "191927.890000", "191929.395000", "191930.902500", "191932.407500", "191933.915000", "191935.420000", "191936.925000", "191938.432500", "191939.937500", "191941.445000", "191942.950000", "191944.455000", "191945.962500", "191947.467500", "191948.975000", "191950.480000", "191951.985000", "191953.492500", "191954.997500", "191956.505000", "191958.010000", "191959.517500", "192001.022500", "192002.527500", "192004.035000", "192005.540000", "192007.047500", "192008.552500", "192010.057500", "192011.565000", "192013.070000", "192014.577500", "192016.082500", "192017.587500", "192019.095000", "192020.600000", "192022.107500", "192023.612500", "192025.117500", "192026.625000", "192028.130000", "192029.637500", "192031.142500", "192032.650000", "192034.155000", "192035.660000", "192037.167500", "192038.672500", "192040.180000", "192041.685000", "192043.190000", "192044.697500", "192046.202500", "192047.710000", "192049.215000", "192050.720000", "192052.227500", "192053.732500", "192055.240000", "192056.745000", "192058.250000", "192059.757500", "192101.262500", "192102.770000", "192104.275000", "192105.782500", "192107.287500", "192108.792500", "192110.300000", "192111.805000", "192113.312500", "192114.817500", "192116.322500", "192117.830000", "192119.335000", "192120.842500", "192122.347500", "192123.852500", "192125.360000", "192126.865000", "192128.372500", "192129.877500", "192131.382500", "192132.890000", "192134.395000", "192135.902500", "192137.407500", "192138.915000", "192140.420000", "192141.925000", "192143.432500", "192144.937500", "192146.445000", "192147.950000", "192149.455000", "192150.962500", "192152.467500", "192153.975000", "192155.480000", "192156.985000", "192158.492500", "192159.997500", "192201.505000", "192203.010000", "192204.517500", "192206.022500", "192207.527500", "192209.035000", "192210.540000", "192212.047500", "192213.552500", "192215.057500", "192216.565000", "192218.070000", "192219.577500", "192221.082500", "192222.587500", "192224.095000", "192225.600000", "192227.107500", "192228.612500", "192230.117500", "192231.625000", "192233.130000", "192234.637500", "192236.142500", "192237.650000", "192239.155000", "192240.660000", "192242.167500", "192243.672500", "192245.180000", "192246.685000", "192248.190000", "192249.697500", "192251.202500", "192252.710000", "192254.215000", "192255.720000", "192257.227500", "192258.732500", "192300.240000", "192301.745000", "192303.250000", "192304.757500", "192306.262500", "192307.770000", "192309.275000", "192310.782500", "192312.287500", "192313.792500", "192315.300000", "192316.805000", "192318.312500", "192319.817500", "192321.322500", "192322.830000", "192324.335000", "192325.842500", "192327.347500", "192328.852500", "192330.360000", "192331.865000", "192333.372500", "192334.877500", "192336.382500"],
      "ContentTime": ["192200.687000", "192200.687000", "192200.703000", "192200.703000", "192200.703000", "192200.703000", "192200.703000", "192200.703000", "192200.703000", "192300.687000", "192300.687000", "192300.687000", "192300.687000", "192300.687000", "192300.703000", "192300.703000", "192300.703000", "192300.703000", "192300.703000", "192300.718000", "192300.718000", "192300.718000", "192300.718000", "192300.718000", "192300.718000", "192300.718000", "192300.718000", "192300.718000", "192300.734000", "192300.734000", "192300.734000", "192300.734000", "192300.734000", "192300.734000", "192300.734000", "192400.687000", "192400.687000", "192400.687000", "192400.687000", "192400.687000", "192400.687000", "192400.703000", "192400.703000", "192400.703000", "192400.703000", "192400.703000", "192400.703000", "192400.703000", "192400.703000", "192400.703000", "192400.718000", "192400.718000", "192400.718000", "192400.718000", "192400.718000", "192400.718000", "192400.718000", "192400.718000", "192400.718000", "192400.734000", "192400.734000", "192500.687000", "192500.687000", "192500.687000", "192500.687000", "192500.687000", "192500.703000", "192500.703000", "192500.703000", "192500.703000", "192500.703000", "192500.718000", "192500.718000", "192500.718000", "192500.718000", "192500.718000", "192500.718000", "192500.718000", "192500.718000", "192500.718000", "192500.734000", "192500.734000", "192500.734000", "192500.734000", "192500.734000", "192500.734000", "192500.734000", "192600.687000", "192600.687000", "192600.687000", "192600.687000", "192600.687000", "192600.703000", "192600.703000", "192600.703000", "192600.703000", "192600.703000", "192600.718000", "192600.718000", "192600.718000", "192600.718000", "192600.718000", "192600.734000", "192600.734000", "192600.734000", "192600.734000", "192600.734000", "192600.734000", "192600.734000", "192600.734000", "192600.734000", "192600.750000", "192600.750000", "192700.687000", "192700.718000", "192700.718000", "192700.718000", "192700.718000", "192700.718000", "192700.718000", "192700.734000", "192700.734000", "192700.734000", "192700.734000", "192700.734000", "192700.765000", "192700.781000", "192700.781000", "192700.781000", "192700.781000", "192700.796000", "192700.796000", "192700.796000", "192700.796000", "192700.796000", "192700.796000", "192700.796000", "192700.796000", "192700.812000", "192800.687000", "192800.687000", "192800.687000", "192800.687000", "192800.687000", "192800.703000", "192800.703000", "192800.703000", "192800.703000", "192800.703000", "192800.703000", "192800.703000", "192800.703000", "192800.703000", "192800.718000", "192800.718000", "192800.718000", "192800.718000", "192800.718000", "192800.718000", "192800.718000", "192800.718000", "192800.718000", "192800.734000", "192800.734000", "192800.734000", "192800.734000", "192900.687000", "192900.687000", "192900.687000", "192900.687000", "192900.687000", "192900.703000", "192900.703000", "192900.703000", "192900.703000", "192900.703000", "192900.718000", "192900.718000", "192900.718000", "192900.718000", "192900.718000", "192900.718000", "192900.718000", "192900.718000", "192900.718000", "192900.718000", "192900.734000", "192900.734000", "192900.734000", "192900.734000", "192900.734000", "193000.687000", "193000.687000", "193000.687000", "193000.687000", "193000.687000", "193000.703000", "193000.703000", "193000.703000", "193000.703000", "193000.703000", "193000.703000", "193000.718000", "193000.718000", "193000.718000", "193000.718000", "193000.718000", "193000.734000", "193000.734000", "193000.734000", "193000.734000", "193000.734000", "193000.734000", "193000.734000", "193000.734000", "193000.734000", "193000.750000", "193000.750000", "193100.687000", "193100.687000", "193100.687000", "193100.687000", "193100.687000", "193100.703000", "193100.703000", "193100.703000", "193100.703000", "193100.703000", "193100.703000", "193100.703000", "193100.703000", "193100.703000", "193100.718000", "193100.718000", "193100.718000", "193100.718000", "193100.718000", "193100.718000", "193100.718000", "193100.718000", "193100.718000", "193100.734000", "193100.734000", "193100.734000", "193200.687000", "193200.687000", "193200.687000", "193200.687000", "193200.687000", "193200.703000", "193200.703000", "193200.703000", "193200.703000", "193200.703000", "193200.703000", "193200.703000", "193200.718000", "193200.718000", "193200.718000", "193200.718000", "193200.718000", "193200.718000", "193200.718000", "193200.734000", "193200.734000", "193200.734000", "193200.734000", "193200.734000", "193200.734000", "193200.734000", "193300.687000", "193300.687000", "193300.687000", "193300.687000", "193300.703000", "193300.703000", "193300.703000", "193300.703000", "193300.703000", "193300.703000", "193300.718000", "193300.718000", "193300.718000", "193300.718000", "193300.718000", "193300.718000", "193300.718000", "193300.734000", "193300.734000", "193300.734000", "193300.734000", "193300.734000", "193300.734000", "193300.734000", "193300.734000", "193300.734000", "193400.687000", "193400.687000", "193400.703000", "193400.703000", "193400.703000", "193400.703000", "193400.703000", "193400.718000", "193400.718000", "193400.718000", "193400.718000", "193400.718000", "193400.718000", "193400.718000", "193400.718000", "193400.718000", "193400.734000", "193400.734000", "193400.734000", "193400.734000", "193400.734000", "193400.734000", "193400.734000", "193400.750000", "193400.750000", "193400.750000", "193500.687000", "193500.687000", "193500.687000", "193500.687000", "193500.687000", "193500.703000", "193500.703000", "193500.703000", "193500.703000", "193500.703000", "193500.703000", "193500.703000", "193500.718000", "193500.734000", "193500.734000", "193500.734000", "193500.734000", "193500.734000", "193500.750000", "193500.750000", "193500.750000", "193500.750000", "193500.750000", "193500.750000", "193500.750000", "193500.750000", "193520.968000", "193520.968000", "193520.984000", "193520.984000", "193520.984000", "193520.984000", "193520.984000", "193520.984000", "193520.984000"],
      "DataSetTrailingPadding": [
        "\u0000\u0000\u0000\u0000\u0000\u0000\u0000\u0000\u0000\u0000\u0000\u0000\u0000\u0000\u0000\u0000\u0000\u0000\u0000\u0000\u0000\u0000\u0000\u0000\u0000\u0000\u0000\u0000\u0000\u0000\u0000\u0000\u0000\u0000\u0000\u0000\u0000\u0000\u0000\u0000\u0000\u0000",
        "\u0000\u0000\u0000\u0000\u0000\u0000\u0000\u0000\u0000\u0000\u0000\u0000\u0000\u0000\u0000\u0000\u0000\u0000\u0000\u0000\u0000\u0000\u0000\u0000\u0000\u0000\u0000\u0000\u0000\u0000\u0000\u0000\u0000\u0000\u0000\u0000\u0000\u0000\u0000\u0000",
        "\u0000\u0000\u0000\u0000\u0000\u0000\u0000\u0000\u0000\u0000\u0000\u0000\u0000\u0000\u0000\u0000\u0000\u0000\u0000\u0000\u0000\u0000\u0000\u0000\u0000\u0000\u0000\u0000\u0000\u0000\u0000\u0000\u0000\u0000\u0000\u0000\u0000\u0000\u0000\u0000",
        "\u0000\u0000\u0000\u0000\u0000\u0000\u0000\u0000\u0000\u0000\u0000\u0000\u0000\u0000\u0000\u0000\u0000\u0000\u0000\u0000\u0000\u0000\u0000\u0000\u0000\u0000\u0000\u0000\u0000\u0000\u0000\u0000\u0000\u0000\u0000\u0000\u0000\u0000\u0000\u0000\u0000\u0000",
        "\u0000\u0000\u0000\u0000\u0000\u0000\u0000\u0000\u0000\u0000\u0000\u0000\u0000\u0000\u0000\u0000\u0000\u0000\u0000\u0000\u0000\u0000\u0000\u0000\u0000\u0000\u0000\u0000\u0000\u0000\u0000\u0000\u0000\u0000\u0000\u0000\u0000\u0000\u0000\u0000\u0000\u0000",
        "\u0000\u0000\u0000\u0000\u0000\u0000\u0000\u0000\u0000\u0000\u0000\u0000\u0000\u0000\u0000\u0000\u0000\u0000\u0000\u0000\u0000\u0000\u0000\u0000\u0000\u0000\u0000\u0000\u0000\u0000\u0000\u0000\u0000\u0000\u0000\u0000\u0000\u0000\u0000\u0000\u0000\u0000",
        "\u0000\u0000\u0000\u0000\u0000\u0000\u0000\u0000\u0000\u0000\u0000\u0000\u0000\u0000\u0000\u0000\u0000\u0000\u0000\u0000\u0000\u0000\u0000\u0000\u0000\u0000\u0000\u0000\u0000\u0000\u0000\u0000\u0000\u0000\u0000\u0000\u0000\u0000\u0000\u0000",
        "\u0000\u0000\u0000\u0000\u0000\u0000\u0000\u0000\u0000\u0000\u0000\u0000\u0000\u0000\u0000\u0000\u0000\u0000\u0000\u0000\u0000\u0000\u0000\u0000\u0000\u0000\u0000\u0000\u0000\u0000\u0000\u0000\u0000\u0000\u0000\u0000\u0000\u0000\u0000\u0000\u0000\u0000",
        "\u0000\u0000\u0000\u0000\u0000\u0000\u0000\u0000\u0000\u0000\u0000\u0000\u0000\u0000\u0000\u0000\u0000\u0000\u0000\u0000\u0000\u0000\u0000\u0000\u0000\u0000\u0000\u0000\u0000\u0000\u0000\u0000\u0000\u0000\u0000\u0000\u0000\u0000\u0000\u0000\u0000\u0000",
        "\u0000\u0000\u0000\u0000\u0000\u0000\u0000\u0000\u0000\u0000\u0000\u0000\u0000\u0000\u0000\u0000\u0000\u0000\u0000\u0000\u0000\u0000\u0000\u0000\u0000\u0000\u0000\u0000\u0000\u0000\u0000\u0000\u0000\u0000\u0000\u0000\u0000\u0000",
        "\u0000\u0000\u0000\u0000\u0000\u0000\u0000\u0000\u0000\u0000\u0000\u0000\u0000\u0000\u0000\u0000\u0000\u0000\u0000\u0000\u0000\u0000\u0000\u0000\u0000\u0000\u0000\u0000\u0000\u0000\u0000\u0000\u0000\u0000\u0000\u0000\u0000\u0000",
        "\u0000\u0000\u0000\u0000\u0000\u0000\u0000\u0000\u0000\u0000\u0000\u0000\u0000\u0000\u0000\u0000\u0000\u0000\u0000\u0000\u0000\u0000\u0000\u0000\u0000\u0000\u0000\u0000\u0000\u0000\u0000\u0000\u0000\u0000\u0000\u0000",
        "\u0000\u0000\u0000\u0000\u0000\u0000\u0000\u0000\u0000\u0000\u0000\u0000\u0000\u0000\u0000\u0000\u0000\u0000\u0000\u0000\u0000\u0000\u0000\u0000\u0000\u0000\u0000\u0000\u0000\u0000\u0000\u0000\u0000\u0000\u0000\u0000",
        "\u0000\u0000\u0000\u0000\u0000\u0000\u0000\u0000\u0000\u0000\u0000\u0000\u0000\u0000\u0000\u0000\u0000\u0000\u0000\u0000\u0000\u0000\u0000\u0000\u0000\u0000\u0000\u0000\u0000\u0000\u0000\u0000\u0000\u0000\u0000\u0000\u0000\u0000",
        "\u0000\u0000\u0000\u0000\u0000\u0000\u0000\u0000\u0000\u0000\u0000\u0000\u0000\u0000\u0000\u0000\u0000\u0000\u0000\u0000\u0000\u0000\u0000\u0000\u0000\u0000\u0000\u0000\u0000\u0000\u0000\u0000\u0000\u0000\u0000\u0000\u0000\u0000",
        "\u0000\u0000\u0000\u0000\u0000\u0000\u0000\u0000\u0000\u0000\u0000\u0000\u0000\u0000\u0000\u0000\u0000\u0000\u0000\u0000\u0000\u0000\u0000\u0000\u0000\u0000\u0000\u0000\u0000\u0000\u0000\u0000\u0000\u0000\u0000\u0000\u0000\u0000",
        "\u0000\u0000\u0000\u0000\u0000\u0000\u0000\u0000\u0000\u0000\u0000\u0000\u0000\u0000\u0000\u0000\u0000\u0000\u0000\u0000\u0000\u0000\u0000\u0000\u0000\u0000\u0000\u0000\u0000\u0000\u0000\u0000\u0000\u0000\u0000\u0000",
        "\u0000\u0000\u0000\u0000\u0000\u0000\u0000\u0000\u0000\u0000\u0000\u0000\u0000\u0000\u0000\u0000\u0000\u0000\u0000\u0000\u0000\u0000\u0000\u0000\u0000\u0000\u0000\u0000\u0000\u0000\u0000\u0000\u0000\u0000\u0000\u0000",
        "\u0000\u0000\u0000\u0000\u0000\u0000\u0000\u0000\u0000\u0000\u0000\u0000\u0000\u0000\u0000\u0000\u0000\u0000\u0000\u0000\u0000\u0000\u0000\u0000\u0000\u0000\u0000\u0000\u0000\u0000\u0000\u0000\u0000\u0000\u0000\u0000\u0000\u0000",
        "\u0000\u0000\u0000\u0000\u0000\u0000\u0000\u0000\u0000\u0000\u0000\u0000\u0000\u0000\u0000\u0000\u0000\u0000\u0000\u0000\u0000\u0000\u0000\u0000\u0000\u0000\u0000\u0000\u0000\u0000\u0000\u0000\u0000\u0000\u0000\u0000\u0000\u0000",
        "\u0000\u0000\u0000\u0000\u0000\u0000\u0000\u0000\u0000\u0000\u0000\u0000\u0000\u0000\u0000\u0000\u0000\u0000\u0000\u0000\u0000\u0000\u0000\u0000\u0000\u0000\u0000\u0000\u0000\u0000\u0000\u0000\u0000\u0000\u0000\u0000\u0000\u0000",
        "\u0000\u0000\u0000\u0000\u0000\u0000\u0000\u0000\u0000\u0000\u0000\u0000\u0000\u0000\u0000\u0000\u0000\u0000\u0000\u0000\u0000\u0000\u0000\u0000\u0000\u0000\u0000\u0000\u0000\u0000\u0000\u0000\u0000\u0000\u0000\u0000",
        "\u0000\u0000\u0000\u0000\u0000\u0000\u0000\u0000\u0000\u0000\u0000\u0000\u0000\u0000\u0000\u0000\u0000\u0000\u0000\u0000\u0000\u0000\u0000\u0000\u0000\u0000\u0000\u0000\u0000\u0000\u0000\u0000\u0000\u0000\u0000\u0000",
        "\u0000\u0000\u0000\u0000\u0000\u0000\u0000\u0000\u0000\u0000\u0000\u0000\u0000\u0000\u0000\u0000\u0000\u0000\u0000\u0000\u0000\u0000\u0000\u0000\u0000\u0000\u0000\u0000\u0000\u0000\u0000\u0000\u0000\u0000\u0000\u0000\u0000\u0000",
        "\u0000\u0000\u0000\u0000\u0000\u0000\u0000\u0000\u0000\u0000\u0000\u0000\u0000\u0000\u0000\u0000\u0000\u0000\u0000\u0000\u0000\u0000\u0000\u0000\u0000\u0000\u0000\u0000\u0000\u0000\u0000\u0000\u0000\u0000\u0000\u0000\u0000\u0000",
        "\u0000\u0000\u0000\u0000\u0000\u0000\u0000\u0000\u0000\u0000\u0000\u0000\u0000\u0000\u0000\u0000\u0000\u0000\u0000\u0000\u0000\u0000\u0000\u0000\u0000\u0000\u0000\u0000\u0000\u0000\u0000\u0000\u0000\u0000\u0000\u0000",
        "\u0000\u0000\u0000\u0000\u0000\u0000\u0000\u0000\u0000\u0000\u0000\u0000\u0000\u0000\u0000\u0000\u0000\u0000\u0000\u0000\u0000\u0000\u0000\u0000\u0000\u0000\u0000\u0000\u0000\u0000\u0000\u0000\u0000\u0000\u0000\u0000",
        "\u0000\u0000\u0000\u0000\u0000\u0000\u0000\u0000\u0000\u0000\u0000\u0000\u0000\u0000\u0000\u0000\u0000\u0000\u0000\u0000\u0000\u0000\u0000\u0000\u0000\u0000\u0000\u0000\u0000\u0000\u0000\u0000\u0000\u0000\u0000\u0000",
        "\u0000\u0000\u0000\u0000\u0000\u0000\u0000\u0000\u0000\u0000\u0000\u0000\u0000\u0000\u0000\u0000\u0000\u0000\u0000\u0000\u0000\u0000\u0000\u0000\u0000\u0000\u0000\u0000\u0000\u0000\u0000\u0000\u0000\u0000\u0000\u0000\u0000\u0000",
        "\u0000\u0000\u0000\u0000\u0000\u0000\u0000\u0000\u0000\u0000\u0000\u0000\u0000\u0000\u0000\u0000\u0000\u0000\u0000\u0000\u0000\u0000\u0000\u0000\u0000\u0000\u0000\u0000\u0000\u0000\u0000\u0000\u0000\u0000\u0000\u0000\u0000\u0000",
        "\u0000\u0000\u0000\u0000\u0000\u0000\u0000\u0000\u0000\u0000\u0000\u0000\u0000\u0000\u0000\u0000\u0000\u0000\u0000\u0000\u0000\u0000\u0000\u0000\u0000\u0000\u0000\u0000\u0000\u0000\u0000\u0000\u0000\u0000\u0000\u0000",
        "\u0000\u0000\u0000\u0000\u0000\u0000\u0000\u0000\u0000\u0000\u0000\u0000\u0000\u0000\u0000\u0000\u0000\u0000\u0000\u0000\u0000\u0000\u0000\u0000\u0000\u0000\u0000\u0000\u0000\u0000\u0000\u0000\u0000\u0000\u0000\u0000",
        "\u0000\u0000\u0000\u0000\u0000\u0000\u0000\u0000\u0000\u0000\u0000\u0000\u0000\u0000\u0000\u0000\u0000\u0000\u0000\u0000\u0000\u0000\u0000\u0000\u0000\u0000\u0000\u0000\u0000\u0000\u0000\u0000\u0000\u0000\u0000\u0000",
        "\u0000\u0000\u0000\u0000\u0000\u0000\u0000\u0000\u0000\u0000\u0000\u0000\u0000\u0000\u0000\u0000\u0000\u0000\u0000\u0000\u0000\u0000\u0000\u0000\u0000\u0000\u0000\u0000\u0000\u0000\u0000\u0000\u0000\u0000\u0000\u0000\u0000\u0000",
        "\u0000\u0000\u0000\u0000\u0000\u0000\u0000\u0000\u0000\u0000\u0000\u0000\u0000\u0000\u0000\u0000\u0000\u0000\u0000\u0000\u0000\u0000\u0000\u0000\u0000\u0000\u0000\u0000\u0000\u0000\u0000\u0000\u0000\u0000\u0000\u0000\u0000\u0000",
        "\u0000\u0000\u0000\u0000\u0000\u0000\u0000\u0000\u0000\u0000\u0000\u0000\u0000\u0000\u0000\u0000\u0000\u0000\u0000\u0000\u0000\u0000\u0000\u0000\u0000\u0000\u0000\u0000\u0000\u0000\u0000\u0000\u0000\u0000\u0000\u0000",
        "\u0000\u0000\u0000\u0000\u0000\u0000\u0000\u0000\u0000\u0000\u0000\u0000\u0000\u0000\u0000\u0000\u0000\u0000\u0000\u0000\u0000\u0000\u0000\u0000\u0000\u0000\u0000\u0000\u0000\u0000\u0000\u0000\u0000\u0000\u0000\u0000",
        "\u0000\u0000\u0000\u0000\u0000\u0000\u0000\u0000\u0000\u0000\u0000\u0000\u0000\u0000\u0000\u0000\u0000\u0000\u0000\u0000\u0000\u0000\u0000\u0000\u0000\u0000\u0000\u0000\u0000\u0000\u0000\u0000\u0000\u0000\u0000\u0000",
        "\u0000\u0000\u0000\u0000\u0000\u0000\u0000\u0000\u0000\u0000\u0000\u0000\u0000\u0000\u0000\u0000\u0000\u0000\u0000\u0000\u0000\u0000\u0000\u0000\u0000\u0000\u0000\u0000\u0000\u0000\u0000\u0000\u0000\u0000\u0000\u0000\u0000\u0000",
        "\u0000\u0000\u0000\u0000\u0000\u0000\u0000\u0000\u0000\u0000\u0000\u0000\u0000\u0000\u0000\u0000\u0000\u0000\u0000\u0000\u0000\u0000\u0000\u0000\u0000\u0000\u0000\u0000\u0000\u0000\u0000\u0000\u0000\u0000\u0000\u0000\u0000\u0000\u0000\u0000",
        "\u0000\u0000\u0000\u0000\u0000\u0000\u0000\u0000\u0000\u0000\u0000\u0000\u0000\u0000\u0000\u0000\u0000\u0000\u0000\u0000\u0000\u0000\u0000\u0000\u0000\u0000\u0000\u0000\u0000\u0000\u0000\u0000\u0000\u0000\u0000\u0000",
        "\u0000\u0000\u0000\u0000\u0000\u0000\u0000\u0000\u0000\u0000\u0000\u0000\u0000\u0000\u0000\u0000\u0000\u0000\u0000\u0000\u0000\u0000\u0000\u0000\u0000\u0000\u0000\u0000\u0000\u0000\u0000\u0000\u0000\u0000\u0000\u0000",
        "\u0000\u0000\u0000\u0000\u0000\u0000\u0000\u0000\u0000\u0000\u0000\u0000\u0000\u0000\u0000\u0000\u0000\u0000\u0000\u0000\u0000\u0000\u0000\u0000\u0000\u0000\u0000\u0000\u0000\u0000\u0000\u0000\u0000\u0000\u0000\u0000",
