{
  "AcquisitionMatrixPE": 110,
  "AcquisitionNumber": 1,
  "AcquisitionTime": "16:42:12.997500",
  "BandwidthPerPixelPhaseEncode": 26.35,
  "BaseResolution": 110,
  "CoilString": "C:HEA;HEP",
  "ConversionSoftware": "dcm2niix",
  "ConversionSoftwareVersion": "v1.0.20190410  GCC6.3.0",
  "DerivedVendorReportedEchoSpacing": 0.000690012,
  "DeviceSerialNumber": "35422",
  "DwellTime": 2.6e-06,
  "EchoTime": 0.03,
  "EffectiveEchoSpacing": 0.000345006,
  "FlipAngle": 85,
  "ImageComments": "Unaliased_MB4_PE4_LB",
  "ImageOrientationPatientDICOM": [0.999997, -0.000383654, -0.00238021, 2.12993e-10, 0.987258, -0.159131],
  "ImageType": [
    "ORIGINAL",
    "PRIMARY",
    "FMRI",
    "NONE",
    "MB",
    "ND",
    "MOSAIC"
],
  "ImagingFrequency": 123.177,
  "InPlanePhaseEncodingDirectionDICOM": "ROW",
  "InstitutionAddress": "kwanakro_599_C4F276_Seoul_KR_ZIP",
  "InstitutionName": "SNUBIC",
  "InstitutionalDepartmentName": "Department",
  "MRAcquisitionType": "2D",
  "MagneticFieldStrength": 3,
  "Manufacturer": "Siemens",
  "ManufacturersModelName": "TrioTim",
  "Modality": "MR",
  "MultibandAccelerationFactor": 4,
  "ParallelReductionFactorInPlane": 2,
  "PartialFourier": 1,
  "PatientPosition": "HFS",
  "PercentPhaseFOV": 100,
  "PhaseEncodingDirection": "i-",
  "PhaseEncodingSteps": 110,
  "PhaseResolution": 1,
  "PixelBandwidth": 1748,
  "ProcedureStepDescription": "SNU_SAVED",
  "ProtocolName": "WMGNG2_MB4_LR_SBRef",
  "PulseSequenceDetails": "%CustomerSeq%_cmrr_mbep2d_bold",
  "ReceiveCoilName": "32Ch_Head",
  "ReconMatrixPE": 110,
  "RefLinesPE": 32,
  "RepetitionTime": 1.5,
  "SAR": 0.110394,
  "ScanOptions": "FS",
  "ScanningSequence": "EP",
  "SequenceName": "epfid2d1_110",
  "SequenceVariant": "SK_SS",
  "SeriesDescription": "WMGNG2_MB4_LR_SBRef",
  "SeriesNumber": 18,
  "ShimSetting": [-4199, -29763, -2146, 933, -159, 197, -187, -40],
  "SliceThickness": 2.3,
  "SliceTiming": [0, 0.6575, 1.3175, 0.47, 1.1275, 0.2825, 0.94, 0.0925, 0.7525, 1.41, 0.565, 1.2225, 0.375, 1.035, 0.1875, 0.8475, 0, 0.6575, 1.3175, 0.47, 1.1275, 0.2825, 0.94, 0.0925, 0.7525, 1.41, 0.565, 1.2225, 0.375, 1.035, 0.1875, 0.8475, 0, 0.6575, 1.3175, 0.47, 1.1275, 0.2825, 0.94, 0.0925, 0.7525, 1.41, 0.565, 1.2225, 0.375, 1.035, 0.1875, 0.8475, 0, 0.6575, 1.3175, 0.47, 1.1275, 0.2825, 0.94, 0.0925, 0.7525, 1.41, 0.565, 1.2225, 0.375, 1.035, 0.1875, 0.8475],
  "SoftwareVersions": "syngo_MR_B17",
  "SpacingBetweenSlices": 2.3,
  "StationName": "MRC35422",
  "TaskName": "wmgng",
  "TotalReadoutTime": 0.0376057,
  "TxRefAmp": 304.505,
  "dcmmeta_affine": [
    [-2.327265977859497, 4.956930421684547e-10, -0.0055451421067118645, 129.27432250976562],
    [0.000892866519279778, 2.2976174354553223, -0.3659997284412384, -112.39988708496094],
    [-0.0055393981747329235, 0.3703407049179077, 2.2706856727600098, -83.33712768554688],
    [0.0, 0.0, 0.0, 1.0]
],
  "dcmmeta_reorient_transform": [
    [0.0, -1.0, 0.0, 109.0],
    [1.0, 0.0, 0.0, 0.0],
    [0.0, 0.0, 1.0, 0.0],
    [0.0, 0.0, 0.0, 1.0]
],
  "dcmmeta_shape": [110, 110, 64, 357],
  "dcmmeta_slice_dim": 2,
  "dcmmeta_version": 0.6,
  "global": {
    "const": {
      "AcquisitionMatrix": [0, 110, 110, 0],
      "AngioFlag": "N",
      "BitsAllocated": 16,
      "BitsStored": 12,
      "Columns": 880,
      "EchoNumbers": 1,
      "EchoTime": 30.0,
      "EchoTrainLength": 1,
      "FlipAngle": 85.0,
      "HighBit": 11,
      "ImageOrientationPatient": [0.99999709370055, -0.0003836536012, -0.0023802101526, 2.129931e-10, 0.987257512679, -0.1591307753355],
      "ImagePositionPatient": [-1025.2716900001, -1022.2793616776, 101.74384561793],
      "ImageType": [
        "ORIGINAL",
        "PRIMARY",
        "FMRI",
        "NONE",
        "MB",
        "ND",
        "MOSAIC"
],
      "ImagedNucleus": "1H",
      "ImagingFrequency": 123.17739,
      "InPlanePhaseEncodingDirection": "ROW",
      "MRAcquisitionType": "2D",
      "MagneticFieldStrength": 3.0,
      "Manufacturer": "SIEMENS",
      "ManufacturerModelName": "TrioTim",
      "Modality": "MR",
      "NumberOfAverages": 1.0,
      "NumberOfPhaseEncodingSteps": 110,
      "PercentPhaseFieldOfView": 100.0,
      "PercentSampling": 100.0,
      "PerformedProcedureStepStartTime": "154858.687000",
      "PhotometricInterpretation": "MONOCHROME2",
      "PixelBandwidth": 1748.0,
      "PixelRepresentation": 0,
      "PixelSpacing": [2.3272726535797, 2.3272726535797],
      "ProtocolName": "WMGNG2_MB4_LR_SBRef",
      "ReferencedPerformedProcedureStepSequence": [
        {
          "ReferencedSOPClassUID": "1.2.840.10008.3.1.2.3.3",
          "ReferencedSOPInstanceUID": "1.3.12.2.1107.5.2.32.35422.30000020013000402846800000002"}
],
      "RepetitionTime": 1500.0,
      "Rows": 880,
      "SAR": 0.11039410949074,
      "SamplesPerPixel": 1,
      "ScanOptions": "FS",
      "ScanningSequence": "EP",
      "SequenceName": "epfid2d1_110",
      "SequenceVariant": [
        "SK",
        "SS"
],
      "SeriesDescription": "WMGNG2_MB4_LR_SBRef",
      "SeriesNumber": 18,
      "SeriesTime": "165409.671000",
      "SliceLocation": -64.700410384373,
      "SliceThickness": 2.2999999523163,
      "SmallestImagePixelValue": 0,
      "SoftwareVersions": "syngo MR B17",
      "SpacingBetweenSlices": 2.2999999708686,
      "SpecificCharacterSet": "ISO_IR 100",
      "StudyID": "1",
      "StudyTime": "154858.656000",
      "TransmitCoilName": "Body",
      "VariableFlipAngleFlag": "N",
      "WindowCenterWidthExplanation": "Algo1",
      "dBdt": 0.0},
    "slices": {}
  },
  "time": {
    "samples": {
      "AcquisitionNumber": [1, 2, 3, 4, 5, 6, 7, 8, 9, 10, 11, 12, 13, 14, 15, 16, 17, 18, 19, 20, 21, 22, 23, 24, 25, 26, 27, 28, 29, 30, 31, 32, 33, 34, 35, 36, 37, 38, 39, 40, 41, 42, 43, 44, 45, 46, 47, 48, 49, 50, 51, 52, 53, 54, 55, 56, 57, 58, 59, 60, 61, 62, 63, 64, 65, 66, 67, 68, 69, 70, 71, 72, 73, 74, 75, 76, 77, 78, 79, 80, 81, 82, 83, 84, 85, 86, 87, 88, 89, 90, 91, 92, 93, 94, 95, 96, 97, 98, 99, 100, 101, 102, 103, 104, 105, 106, 107, 108, 109, 110, 111, 112, 113, 114, 115, 116, 117, 118, 119, 120, 121, 122, 123, 124, 125, 126, 127, 128, 129, 130, 131, 132, 133, 134, 135, 136, 137, 138, 139, 140, 141, 142, 143, 144, 145, 146, 147, 148, 149, 150, 151, 152, 153, 154, 155, 156, 157, 158, 159, 160, 161, 162, 163, 164, 165, 166, 167, 168, 169, 170, 171, 172, 173, 174, 175, 176, 177, 178, 179, 180, 181, 182, 183, 184, 185, 186, 187, 188, 189, 190, 191, 192, 193, 194, 195, 196, 197, 198, 199, 200, 201, 202, 203, 204, 205, 206, 207, 208, 209, 210, 211, 212, 213, 214, 215, 216, 217, 218, 219, 220, 221, 222, 223, 224, 225, 226, 227, 228, 229, 230, 231, 232, 233, 234, 235, 236, 237, 238, 239, 240, 241, 242, 243, 244, 245, 246, 247, 248, 249, 250, 251, 252, 253, 254, 255, 256, 257, 258, 259, 260, 261, 262, 263, 264, 265, 266, 267, 268, 269, 270, 271, 272, 273, 274, 275, 276, 277, 278, 279, 280, 281, 282, 283, 284, 285, 286, 287, 288, 289, 290, 291, 292, 293, 294, 295, 296, 297, 298, 299, 300, 301, 302, 303, 304, 305, 306, 307, 308, 309, 310, 311, 312, 313, 314, 315, 316, 317, 318, 319, 320, 321, 322, 323, 324, 325, 326, 327, 328, 329, 330, 331, 332, 333, 334, 335, 336, 337, 338, 339, 340, 341, 342, 343, 344, 345, 346, 347, 348, 349, 350, 351, 352, 353, 354, 355, 356, 357],
      "AcquisitionTime": ["164212.997500", "164214.502500", "164216.010000", "164217.515000", "164219.020000", "164220.527500", "164222.032500", "164223.540000", "164225.045000", "164226.550000", "164228.057500", "164229.562500", "164231.070000", "164232.575000", "164234.082500", "164235.587500", "164237.092500", "164238.600000", "164240.105000", "164241.612500", "164243.117500", "164244.622500", "164246.130000", "164247.635000", "164249.142500", "164250.647500", "164252.152500", "164253.660000", "164255.165000", "164256.672500", "164258.177500", "164259.685000", "164301.190000", "164302.695000", "164304.202500", "164305.707500", "164307.215000", "164308.720000", "164310.225000", "164311.732500", "164313.237500", "164314.745000", "164316.250000", "164317.755000", "164319.262500", "164320.767500", "164322.275000", "164323.780000", "164325.285000", "164326.792500", "164328.297500", "164329.805000", "164331.310000", "164332.817500", "164334.322500", "164335.827500", "164337.335000", "164338.840000", "164340.347500", "164341.852500", "164343.357500", "164344.865000", "164346.370000", "164347.877500", "164349.382500", "164350.887500", "164352.395000", "164353.900000", "164355.407500", "164356.912500", "164358.417500", "164359.925000", "164401.430000", "164402.937500", "164404.442500", "164405.950000", "164407.455000", "164408.960000", "164410.467500", "164411.972500", "164413.480000", "164414.985000", "164416.490000", "164417.997500", "164419.502500", "164421.010000", "164422.515000", "164424.020000", "164425.527500", "164427.032500", "164428.540000", "164430.045000", "164431.550000", "164433.057500", "164434.562500", "164436.070000", "164437.575000", "164439.082500", "164440.587500", "164442.092500", "164443.600000", "164445.105000", "164446.612500", "164448.117500", "164449.622500", "164451.130000", "164452.635000", "164454.142500", "164455.647500", "164457.152500", "164458.660000", "164500.165000", "164501.672500", "164503.177500", "164504.685000", "164506.190000", "164507.695000", "164509.202500", "164510.707500", "164512.215000", "164513.720000", "164515.225000", "164516.732500", "164518.237500", "164519.745000", "164521.250000", "164522.755000", "164524.262500", "164525.767500", "164527.275000", "164528.780000", "164530.285000", "164531.792500", "164533.297500", "164534.805000", "164536.310000", "164537.817500", "164539.322500", "164540.827500", "164542.335000", "164543.840000", "164545.347500", "164546.852500", "164548.357500", "164549.865000", "164551.370000", "164552.877500", "164554.382500", "164555.887500", "164557.395000", "164558.900000", "164600.407500", "164601.912500", "164603.417500", "164604.925000", "164606.430000", "164607.937500", "164609.442500", "164610.950000", "164612.455000", "164613.960000", "164615.467500", "164616.972500", "164618.480000", "164619.985000", "164621.490000", "164622.997500", "164624.502500", "164626.010000", "164627.515000", "164629.020000", "164630.527500", "164632.032500", "164633.540000", "164635.045000", "164636.550000", "164638.057500", "164639.562500", "164641.070000", "164642.575000", "164644.082500", "164645.587500", "164647.092500", "164648.600000", "164650.105000", "164651.612500", "164653.117500", "164654.622500", "164656.130000", "164657.635000", "164659.142500", "164700.647500", "164702.152500", "164703.660000", "164705.165000", "164706.672500", "164708.177500", "164709.685000", "164711.190000", "164712.695000", "164714.202500", "164715.707500", "164717.215000", "164718.720000", "164720.225000", "164721.732500", "164723.237500", "164724.745000", "164726.250000", "164727.755000", "164729.262500", "164730.767500", "164732.275000", "164733.780000", "164735.285000", "164736.792500", "164738.297500", "164739.805000", "164741.310000", "164742.817500", "164744.322500", "164745.827500", "164747.335000", "164748.840000", "164750.347500", "164751.852500", "164753.357500", "164754.865000", "164756.370000", "164757.877500", "164759.382500", "164800.887500", "164802.395000", "164803.900000", "164805.407500", "164806.912500", "164808.417500", "164809.925000", "164811.430000", "164812.937500", "164814.442500", "164815.950000", "164817.455000", "164818.960000", "164820.467500", "164821.972500", "164823.480000", "164824.985000", "164826.490000", "164827.997500", "164829.502500", "164831.010000", "164832.515000", "164834.020000", "164835.527500", "164837.032500", "164838.540000", "164840.045000", "164841.550000", "164843.057500", "164844.562500", "164846.070000", "164847.575000", "164849.082500", "164850.587500", "164852.092500", "164853.600000", "164855.105000", "164856.612500", "164858.117500", "164859.622500", "164901.130000", "164902.635000", "164904.142500", "164905.647500", "164907.152500", "164908.660000", "164910.165000", "164911.672500", "164913.177500", "164914.685000", "164916.190000", "164917.695000", "164919.202500", "164920.707500", "164922.215000", "164923.720000", "164925.225000", "164926.732500", "164928.237500", "164929.745000", "164931.250000", "164932.755000", "164934.262500", "164935.767500", "164937.275000", "164938.780000", "164940.285000", "164941.792500", "164943.297500", "164944.805000", "164946.310000", "164947.817500", "164949.322500", "164950.827500", "164952.335000", "164953.840000", "164955.347500", "164956.852500", "164958.357500", "164959.865000", "165001.370000", "165002.877500", "165004.382500", "165005.887500", "165007.395000", "165008.900000", "165010.407500", "165011.912500", "165013.417500", "165014.925000", "165016.430000", "165017.937500", "165019.442500", "165020.950000", "165022.455000", "165023.960000", "165025.467500", "165026.972500", "165028.480000", "165029.985000", "165031.490000", "165032.997500", "165034.502500", "165036.010000", "165037.515000", "165039.020000", "165040.527500", "165042.032500", "165043.540000", "165045.045000", "165046.550000", "165048.057500", "165049.562500", "165051.070000", "165052.575000", "165054.082500", "165055.587500", "165057.092500", "165058.600000", "165100.105000", "165101.612500", "165103.117500", "165104.622500", "165106.130000", "165107.635000", "165109.142500"],
      "ContentTime": ["165409.671000", "165409.671000", "165409.687000", "165409.687000", "165409.687000", "165409.703000", "165409.703000", "165409.703000", "165409.703000", "165509.656000", "165509.671000", "165509.671000", "165509.671000", "165509.671000", "165509.687000", "165509.687000", "165509.687000", "165509.687000", "165509.687000", "165509.687000", "165509.703000", "165509.703000", "165509.703000", "165509.703000", "165509.703000", "165509.703000", "165509.703000", "165509.703000", "165509.703000", "165509.718000", "165509.718000", "165509.718000", "165509.718000", "165509.734000", "165509.734000", "165509.734000", "165609.656000", "165609.671000", "165609.671000", "165609.671000", "165609.671000", "165609.671000", "165609.687000", "165609.687000", "165609.687000", "165609.687000", "165609.687000", "165609.687000", "165609.687000", "165609.687000", "165609.687000", "165609.703000", "165609.703000", "165609.703000", "165609.703000", "165609.703000", "165609.703000", "165609.703000", "165609.703000", "165609.703000", "165609.718000", "165709.656000", "165709.656000", "165709.656000", "165709.671000", "165709.671000", "165709.671000", "165709.671000", "165709.671000", "165709.671000", "165709.671000", "165709.671000", "165709.671000", "165709.687000", "165709.687000", "165709.687000", "165709.687000", "165709.687000", "165709.703000", "165709.703000", "165709.703000", "165709.703000", "165709.703000", "165709.703000", "165709.703000", "165709.703000", "165709.703000", "165729.656000", "165729.656000", "165729.656000", "165729.671000", "165729.671000", "165729.671000", "165729.671000", "165729.671000", "165729.671000", "165829.656000", "165829.656000", "165829.656000", "165829.671000", "165829.671000", "165829.671000", "165829.671000", "165829.687000", "165829.687000", "165829.687000", "165829.687000", "165829.687000", "165829.687000", "165829.687000", "165829.687000", "165829.703000", "165829.703000", "165829.703000", "165829.703000", "165829.703000", "165829.703000", "165829.703000", "165829.703000", "165829.703000", "165829.718000", "165829.718000", "165929.656000", "165929.656000", "165929.656000", "165929.671000", "165929.671000", "165929.671000", "165929.671000", "165929.671000", "165929.671000", "165929.671000", "165929.671000", "165929.687000", "165929.687000", "165929.687000", "165929.687000", "165929.687000", "165929.687000", "165929.687000", "165929.687000", "165929.687000", "165929.703000", "165929.703000", "165929.703000", "165929.718000", "165929.718000", "165929.718000", "170029.656000", "170029.671000", "170029.671000", "170029.671000", "170029.671000", "170029.671000", "170029.687000", "170029.687000", "170029.687000", "170029.687000", "170029.687000", "170029.687000", "170029.687000", "170029.687000", "170029.703000", "170029.703000", "170029.703000", "170029.703000", "170029.703000", "170029.703000", "170029.703000", "170029.703000", "170029.703000", "170029.718000", "170029.718000", "170029.718000", "170129.656000", "170129.656000", "170129.656000", "170129.671000", "170129.671000", "170129.671000", "170129.671000", "170129.671000", "170129.671000", "170129.671000", "170129.671000", "170129.671000", "170129.687000", "170129.687000", "170129.687000", "170129.687000", "170129.687000", "170129.687000", "170129.687000", "170129.687000", "170129.687000", "170129.703000", "170129.703000", "170129.703000", "170129.703000", "170129.703000", "170229.656000", "170229.656000", "170229.671000", "170229.671000", "170229.671000", "170229.671000", "170229.687000", "170229.687000", "170229.687000", "170229.687000", "170229.687000", "170229.687000", "170229.687000", "170229.687000", "170229.703000", "170229.703000", "170229.703000", "170229.703000", "170229.703000", "170229.703000", "170229.703000", "170229.703000", "170229.718000", "170229.718000", "170229.718000", "170229.718000", "170329.656000", "170329.656000", "170329.656000", "170329.671000", "170329.671000", "170329.671000", "170329.671000", "170329.671000", "170329.671000", "170329.671000", "170329.671000", "170329.671000", "170329.687000", "170329.687000", "170329.687000", "170329.687000", "170329.687000", "170329.687000", "170329.703000", "170329.703000", "170329.703000", "170329.703000", "170329.703000", "170329.703000", "170329.703000", "170329.703000", "170429.656000", "170429.656000", "170429.656000", "170429.671000", "170429.671000", "170429.671000", "170429.671000", "170429.671000", "170429.671000", "170429.671000", "170429.671000", "170429.671000", "170429.687000", "170429.687000", "170429.687000", "170429.687000", "170429.687000", "170429.687000", "170429.703000", "170429.703000", "170429.703000", "170429.703000", "170429.703000", "170429.703000", "170429.703000", "170529.656000", "170529.656000", "170529.656000", "170529.671000", "170529.671000", "170529.671000", "170529.687000", "170529.687000", "170529.687000", "170529.687000", "170529.687000", "170529.687000", "170529.687000", "170529.687000", "170529.687000", "170529.703000", "170529.703000", "170529.703000", "170529.703000", "170529.703000", "170529.703000", "170529.703000", "170529.703000", "170529.703000", "170529.718000", "170529.718000", "170629.656000", "170629.656000", "170629.671000", "170629.671000", "170629.671000", "170629.671000", "170629.671000", "170629.671000", "170629.687000", "170629.687000", "170629.687000", "170629.687000", "170629.687000", "170629.687000", "170629.687000", "170629.687000", "170629.687000", "170629.703000", "170629.703000", "170629.703000", "170629.703000", "170629.703000", "170629.703000", "170629.703000", "170629.703000", "170629.718000", "170729.656000", "170729.656000", "170729.656000", "170729.671000", "170729.671000", "170729.671000", "170729.671000", "170729.671000", "170729.671000", "170729.671000", "170729.687000", "170729.687000", "170729.687000", "170729.687000", "170729.687000", "170729.687000", "170729.687000", "170729.687000", "170729.687000", "170729.703000", "170729.718000", "170729.718000", "170729.718000", "170729.718000", "170729.718000", "170729.718000", "170733.328000", "170733.328000"],
      "DataSetTrailingPadding": [
        "\u0000\u0000\u0000\u0000\u0000\u0000\u0000\u0000\u0000\u0000\u0000\u0000\u0000\u0000\u0000\u0000\u0000\u0000\u0000\u0000\u0000\u0000\u0000\u0000\u0000\u0000\u0000\u0000\u0000\u0000\u0000\u0000\u0000\u0000\u0000\u0000",
        "\u0000\u0000\u0000\u0000\u0000\u0000\u0000\u0000\u0000\u0000\u0000\u0000\u0000\u0000\u0000\u0000\u0000\u0000\u0000\u0000\u0000\u0000\u0000\u0000\u0000\u0000\u0000\u0000\u0000\u0000\u0000\u0000\u0000\u0000",
        "\u0000\u0000\u0000\u0000\u0000\u0000\u0000\u0000\u0000\u0000\u0000\u0000\u0000\u0000\u0000\u0000\u0000\u0000\u0000\u0000\u0000\u0000\u0000\u0000\u0000\u0000\u0000\u0000\u0000\u0000\u0000\u0000\u0000\u0000",
        "\u0000\u0000\u0000\u0000\u0000\u0000\u0000\u0000\u0000\u0000\u0000\u0000\u0000\u0000\u0000\u0000\u0000\u0000\u0000\u0000\u0000\u0000\u0000\u0000\u0000\u0000\u0000\u0000\u0000\u0000\u0000\u0000\u0000\u0000\u0000\u0000",
        "\u0000\u0000\u0000\u0000\u0000\u0000\u0000\u0000\u0000\u0000\u0000\u0000\u0000\u0000\u0000\u0000\u0000\u0000\u0000\u0000\u0000\u0000\u0000\u0000\u0000\u0000\u0000\u0000\u0000\u0000\u0000\u0000\u0000\u0000\u0000\u0000",
        "\u0000\u0000\u0000\u0000\u0000\u0000\u0000\u0000\u0000\u0000\u0000\u0000\u0000\u0000\u0000\u0000\u0000\u0000\u0000\u0000\u0000\u0000\u0000\u0000\u0000\u0000\u0000\u0000\u0000\u0000\u0000\u0000\u0000\u0000\u0000\u0000",
        "\u0000\u0000\u0000\u0000\u0000\u0000\u0000\u0000\u0000\u0000\u0000\u0000\u0000\u0000\u0000\u0000\u0000\u0000\u0000\u0000\u0000\u0000\u0000\u0000\u0000\u0000\u0000\u0000\u0000\u0000\u0000\u0000\u0000\u0000",
        "\u0000\u0000\u0000\u0000\u0000\u0000\u0000\u0000\u0000\u0000\u0000\u0000\u0000\u0000\u0000\u0000\u0000\u0000\u0000\u0000\u0000\u0000\u0000\u0000\u0000\u0000\u0000\u0000\u0000\u0000\u0000\u0000\u0000\u0000",
        "\u0000\u0000\u0000\u0000\u0000\u0000\u0000\u0000\u0000\u0000\u0000\u0000\u0000\u0000\u0000\u0000\u0000\u0000\u0000\u0000\u0000\u0000\u0000\u0000\u0000\u0000\u0000\u0000\u0000\u0000\u0000\u0000\u0000\u0000\u0000\u0000",
        "\u0000\u0000\u0000\u0000\u0000\u0000\u0000\u0000\u0000\u0000\u0000\u0000\u0000\u0000\u0000\u0000\u0000\u0000\u0000\u0000\u0000\u0000\u0000\u0000\u0000\u0000\u0000\u0000\u0000\u0000\u0000\u0000\u0000\u0000\u0000\u0000",
        "\u0000\u0000\u0000\u0000\u0000\u0000\u0000\u0000\u0000\u0000\u0000\u0000\u0000\u0000\u0000\u0000\u0000\u0000\u0000\u0000\u0000\u0000\u0000\u0000\u0000\u0000\u0000\u0000\u0000\u0000\u0000\u0000\u0000\u0000",
        "\u0000\u0000\u0000\u0000\u0000\u0000\u0000\u0000\u0000\u0000\u0000\u0000\u0000\u0000\u0000\u0000\u0000\u0000\u0000\u0000\u0000\u0000\u0000\u0000\u0000\u0000\u0000\u0000\u0000\u0000\u0000\u0000\u0000\u0000",
        "\u0000\u0000\u0000\u0000\u0000\u0000\u0000\u0000\u0000\u0000\u0000\u0000\u0000\u0000\u0000\u0000\u0000\u0000\u0000\u0000\u0000\u0000\u0000\u0000\u0000\u0000\u0000\u0000\u0000\u0000\u0000\u0000\u0000\u0000",
        "\u0000\u0000\u0000\u0000\u0000\u0000\u0000\u0000\u0000\u0000\u0000\u0000\u0000\u0000\u0000\u0000\u0000\u0000\u0000\u0000\u0000\u0000\u0000\u0000\u0000\u0000\u0000\u0000\u0000\u0000\u0000\u0000\u0000\u0000\u0000\u0000",
        "\u0000\u0000\u0000\u0000\u0000\u0000\u0000\u0000\u0000\u0000\u0000\u0000\u0000\u0000\u0000\u0000\u0000\u0000\u0000\u0000\u0000\u0000\u0000\u0000\u0000\u0000\u0000\u0000\u0000\u0000\u0000\u0000\u0000\u0000\u0000\u0000",
        "\u0000\u0000\u0000\u0000\u0000\u0000\u0000\u0000\u0000\u0000\u0000\u0000\u0000\u0000\u0000\u0000\u0000\u0000\u0000\u0000\u0000\u0000\u0000\u0000\u0000\u0000\u0000\u0000\u0000\u0000\u0000\u0000\u0000\u0000",
        "\u0000\u0000\u0000\u0000\u0000\u0000\u0000\u0000\u0000\u0000\u0000\u0000\u0000\u0000\u0000\u0000\u0000\u0000\u0000\u0000\u0000\u0000\u0000\u0000\u0000\u0000\u0000\u0000\u0000\u0000\u0000\u0000\u0000\u0000",
        "\u0000\u0000\u0000\u0000\u0000\u0000\u0000\u0000\u0000\u0000\u0000\u0000\u0000\u0000\u0000\u0000\u0000\u0000\u0000\u0000\u0000\u0000\u0000\u0000\u0000\u0000\u0000\u0000\u0000\u0000\u0000\u0000\u0000\u0000",
        "\u0000\u0000\u0000\u0000\u0000\u0000\u0000\u0000\u0000\u0000\u0000\u0000\u0000\u0000\u0000\u0000\u0000\u0000\u0000\u0000\u0000\u0000\u0000\u0000\u0000\u0000\u0000\u0000\u0000\u0000\u0000\u0000\u0000\u0000\u0000\u0000",
        "\u0000\u0000\u0000\u0000\u0000\u0000\u0000\u0000\u0000\u0000\u0000\u0000\u0000\u0000\u0000\u0000\u0000\u0000\u0000\u0000\u0000\u0000\u0000\u0000\u0000\u0000\u0000\u0000\u0000\u0000\u0000\u0000\u0000\u0000\u0000\u0000",
        "\u0000\u0000\u0000\u0000\u0000\u0000\u0000\u0000\u0000\u0000\u0000\u0000\u0000\u0000\u0000\u0000\u0000\u0000\u0000\u0000\u0000\u0000\u0000\u0000\u0000\u0000\u0000\u0000\u0000\u0000\u0000\u0000\u0000\u0000",
        "\u0000\u0000\u0000\u0000\u0000\u0000\u0000\u0000\u0000\u0000\u0000\u0000\u0000\u0000\u0000\u0000\u0000\u0000\u0000\u0000\u0000\u0000\u0000\u0000\u0000\u0000\u0000\u0000\u0000\u0000\u0000\u0000\u0000\u0000",
        "\u0000\u0000\u0000\u0000\u0000\u0000\u0000\u0000\u0000\u0000\u0000\u0000\u0000\u0000\u0000\u0000\u0000\u0000\u0000\u0000\u0000\u0000\u0000\u0000\u0000\u0000\u0000\u0000\u0000\u0000\u0000\u0000\u0000\u0000",
        "\u0000\u0000\u0000\u0000\u0000\u0000\u0000\u0000\u0000\u0000\u0000\u0000\u0000\u0000\u0000\u0000\u0000\u0000\u0000\u0000\u0000\u0000\u0000\u0000\u0000\u0000\u0000\u0000\u0000\u0000\u0000\u0000\u0000\u0000\u0000\u0000",
        "\u0000\u0000\u0000\u0000\u0000\u0000\u0000\u0000\u0000\u0000\u0000\u0000\u0000\u0000\u0000\u0000\u0000\u0000\u0000\u0000\u0000\u0000\u0000\u0000\u0000\u0000\u0000\u0000\u0000\u0000\u0000\u0000\u0000\u0000\u0000\u0000",
        "\u0000\u0000\u0000\u0000\u0000\u0000\u0000\u0000\u0000\u0000\u0000\u0000\u0000\u0000\u0000\u0000\u0000\u0000\u0000\u0000\u0000\u0000\u0000\u0000\u0000\u0000\u0000\u0000\u0000\u0000\u0000\u0000\u0000\u0000",
        "\u0000\u0000\u0000\u0000\u0000\u0000\u0000\u0000\u0000\u0000\u0000\u0000\u0000\u0000\u0000\u0000\u0000\u0000\u0000\u0000\u0000\u0000\u0000\u0000\u0000\u0000\u0000\u0000\u0000\u0000\u0000\u0000\u0000\u0000",
        "\u0000\u0000\u0000\u0000\u0000\u0000\u0000\u0000\u0000\u0000\u0000\u0000\u0000\u0000\u0000\u0000\u0000\u0000\u0000\u0000\u0000\u0000\u0000\u0000\u0000\u0000\u0000\u0000\u0000\u0000\u0000\u0000\u0000\u0000",
        "\u0000\u0000\u0000\u0000\u0000\u0000\u0000\u0000\u0000\u0000\u0000\u0000\u0000\u0000\u0000\u0000\u0000\u0000\u0000\u0000\u0000\u0000\u0000\u0000\u0000\u0000\u0000\u0000\u0000\u0000\u0000\u0000\u0000\u0000\u0000\u0000",
        "\u0000\u0000\u0000\u0000\u0000\u0000\u0000\u0000\u0000\u0000\u0000\u0000\u0000\u0000\u0000\u0000\u0000\u0000\u0000\u0000\u0000\u0000\u0000\u0000\u0000\u0000\u0000\u0000\u0000\u0000\u0000\u0000\u0000\u0000\u0000\u0000",
        "\u0000\u0000\u0000\u0000\u0000\u0000\u0000\u0000\u0000\u0000\u0000\u0000\u0000\u0000\u0000\u0000\u0000\u0000\u0000\u0000\u0000\u0000\u0000\u0000\u0000\u0000\u0000\u0000\u0000\u0000\u0000\u0000\u0000\u0000",
        "\u0000\u0000\u0000\u0000\u0000\u0000\u0000\u0000\u0000\u0000\u0000\u0000\u0000\u0000\u0000\u0000\u0000\u0000\u0000\u0000\u0000\u0000\u0000\u0000\u0000\u0000\u0000\u0000\u0000\u0000\u0000\u0000\u0000\u0000\u0000\u0000",
        "\u0000\u0000\u0000\u0000\u0000\u0000\u0000\u0000\u0000\u0000\u0000\u0000\u0000\u0000\u0000\u0000\u0000\u0000\u0000\u0000\u0000\u0000\u0000\u0000\u0000\u0000\u0000\u0000\u0000\u0000\u0000\u0000\u0000\u0000\u0000\u0000",
        "\u0000\u0000\u0000\u0000\u0000\u0000\u0000\u0000\u0000\u0000\u0000\u0000\u0000\u0000\u0000\u0000\u0000\u0000\u0000\u0000\u0000\u0000\u0000\u0000\u0000\u0000\u0000\u0000\u0000\u0000\u0000\u0000\u0000\u0000\u0000\u0000",
        "\u0000\u0000\u0000\u0000\u0000\u0000\u0000\u0000\u0000\u0000\u0000\u0000\u0000\u0000\u0000\u0000\u0000\u0000\u0000\u0000\u0000\u0000\u0000\u0000\u0000\u0000\u0000\u0000\u0000\u0000\u0000\u0000\u0000\u0000\u0000\u0000",
        "\u0000\u0000\u0000\u0000\u0000\u0000\u0000\u0000\u0000\u0000\u0000\u0000\u0000\u0000\u0000\u0000\u0000\u0000\u0000\u0000\u0000\u0000\u0000\u0000\u0000\u0000\u0000\u0000\u0000\u0000\u0000\u0000\u0000\u0000",
        "\u0000\u0000\u0000\u0000\u0000\u0000\u0000\u0000\u0000\u0000\u0000\u0000\u0000\u0000\u0000\u0000\u0000\u0000\u0000\u0000\u0000\u0000\u0000\u0000\u0000\u0000\u0000\u0000\u0000\u0000\u0000\u0000\u0000\u0000",
        "\u0000\u0000\u0000\u0000\u0000\u0000\u0000\u0000\u0000\u0000\u0000\u0000\u0000\u0000\u0000\u0000\u0000\u0000\u0000\u0000\u0000\u0000\u0000\u0000\u0000\u0000\u0000\u0000\u0000\u0000\u0000\u0000\u0000\u0000\u0000\u0000",
        "\u0000\u0000\u0000\u0000\u0000\u0000\u0000\u0000\u0000\u0000\u0000\u0000\u0000\u0000\u0000\u0000\u0000\u0000\u0000\u0000\u0000\u0000\u0000\u0000\u0000\u0000\u0000\u0000\u0000\u0000\u0000\u0000\u0000\u0000\u0000\u0000",
        "\u0000\u0000\u0000\u0000\u0000\u0000\u0000\u0000\u0000\u0000\u0000\u0000\u0000\u0000\u0000\u0000\u0000\u0000\u0000\u0000\u0000\u0000\u0000\u0000\u0000\u0000\u0000\u0000\u0000\u0000\u0000\u0000\u0000\u0000\u0000\u0000\u0000\u0000",
        "\u0000\u0000\u0000\u0000\u0000\u0000\u0000\u0000\u0000\u0000\u0000\u0000\u0000\u0000\u0000\u0000\u0000\u0000\u0000\u0000\u0000\u0000\u0000\u0000\u0000\u0000\u0000\u0000\u0000\u0000\u0000\u0000\u0000\u0000",
        "\u0000\u0000\u0000\u0000\u0000\u0000\u0000\u0000\u0000\u0000\u0000\u0000\u0000\u0000\u0000\u0000\u0000\u0000\u0000\u0000\u0000\u0000\u0000\u0000\u0000\u0000\u0000\u0000\u0000\u0000\u0000\u0000\u0000\u0000",
        "\u0000\u0000\u0000\u0000\u0000\u0000\u0000\u0000\u0000\u0000\u0000\u0000\u0000\u0000\u0000\u0000\u0000\u0000\u0000\u0000\u0000\u0000\u0000\u0000\u0000\u0000\u0000\u0000\u0000\u0000\u0000\u0000\u0000\u0000\u0000\u0000",
        "\u0000\u0000\u0000\u0000\u0000\u0000\u0000\u0000\u0000\u0000\u0000\u0000\u0000\u0000\u0000\u0000\u0000\u0000\u0000\u0000\u0000\u0000\u0000\u0000\u0000\u0000\u0000\u0000\u0000\u0000\u0000\u0000\u0000\u0000\u0000\u0000",
        "\u0000\u0000\u0000\u0000\u0000\u0000\u0000\u0000\u0000\u0000\u0000\u0000\u0000\u0000\u0000\u0000\u0000\u0000\u0000\u0000\u0000\u0000\u0000\u0000\u0000\u0000\u0000\u0000\u0000\u0000\u0000\u0000\u0000\u0000\u0000\u0000",
        "\u0000\u0000\u0000\u0000\u0000\u0000\u0000\u0000\u0000\u0000\u0000\u0000\u0000\u0000\u0000\u0000\u0000\u0000\u0000\u0000\u0000\u0000\u0000\u0000\u0000\u0000\u0000\u0000\u0000\u0000\u0000\u0000\u0000\u0000",
        "\u0000\u0000\u0000\u0000\u0000\u0000\u0000\u0000\u0000\u0000\u0000\u0000\u0000\u0000\u0000\u0000\u0000\u0000\u0000\u0000\u0000\u0000\u0000\u0000\u0000\u0000\u0000\u0000\u0000\u0000\u0000\u0000\u0000\u0000",
