{
  "AcquisitionMatrixPE": 110,
  "AcquisitionNumber": 1,
  "AcquisitionTime": "10:27:26.957500",
  "BandwidthPerPixelPhaseEncode": 26.35,
  "BaseResolution": 110,
  "CoilString": "C:HEA;HEP",
  "ConversionSoftware": "dcm2niix",
  "ConversionSoftwareVersion": "v1.0.20190410  GCC6.3.0",
  "DerivedVendorReportedEchoSpacing": 0.000690012,
  "DeviceSerialNumber": "35422",
  "DwellTime": 2.6e-06,
  "EchoTime": 0.03,
  "EffectiveEchoSpacing": 0.000345006,
  "FlipAngle": 85,
  "ImageComments": "Unaliased_MB4_PE4_LB",
  "ImageOrientationPatientDICOM": [0.999782, -0.00218166, 0.0207606, 1.56573e-10, 0.994524, 0.104511],
  "ImageType": [
    "ORIGINAL",
    "PRIMARY",
    "FMRI",
    "NONE",
    "MB",
    "ND",
    "MOSAIC"
],
  "ImagingFrequency": 123.177,
  "InPlanePhaseEncodingDirectionDICOM": "ROW",
  "InstitutionAddress": "kwanakro_599_C6F879_Seoul_KR_ZIP",
  "InstitutionName": "SNUBIC",
  "InstitutionalDepartmentName": "Department",
  "MRAcquisitionType": "2D",
  "MagneticFieldStrength": 3,
  "Manufacturer": "Siemens",
  "ManufacturersModelName": "TrioTim",
  "Modality": "MR",
  "MultibandAccelerationFactor": 4,
  "ParallelReductionFactorInPlane": 2,
  "PartialFourier": 1,
  "PatientPosition": "HFS",
  "PercentPhaseFOV": 100,
  "PhaseEncodingDirection": "i-",
  "PhaseEncodingSteps": 110,
  "PhaseResolution": 1,
  "PixelBandwidth": 1748,
  "ProcedureStepDescription": "SNU_SAVED",
  "ProtocolName": "WMGNG2_MB4_LR_SBRef",
  "PulseSequenceDetails": "%CustomerSeq%_cmrr_mbep2d_bold",
  "ReceiveCoilName": "32Ch_Head",
  "ReconMatrixPE": 110,
  "RefLinesPE": 32,
  "RepetitionTime": 1.5,
  "SAR": 0.136167,
  "ScanOptions": "FS",
  "ScanningSequence": "EP",
  "SequenceName": "epfid2d1_110",
  "SequenceVariant": "SK_SS",
  "SeriesDescription": "WMGNG2_MB4_LR_SBRef",
  "SeriesNumber": 20,
  "ShimSetting": [-4168, -29839, -2010, 745, -174, 306, -13, 5],
  "SliceThickness": 2.3,
  "SliceTiming": [0, 0.6575, 1.3175, 0.47, 1.1275, 0.2825, 0.94, 0.0925, 0.7525, 1.41, 0.565, 1.2225, 0.375, 1.035, 0.1875, 0.845, 0, 0.6575, 1.3175, 0.47, 1.1275, 0.2825, 0.94, 0.0925, 0.7525, 1.41, 0.565, 1.2225, 0.375, 1.035, 0.1875, 0.845, 0, 0.6575, 1.3175, 0.47, 1.1275, 0.2825, 0.94, 0.0925, 0.7525, 1.41, 0.565, 1.2225, 0.375, 1.035, 0.1875, 0.845, 0, 0.6575, 1.3175, 0.47, 1.1275, 0.2825, 0.94, 0.0925, 0.7525, 1.41, 0.565, 1.2225, 0.375, 1.035, 0.1875, 0.845],
  "SoftwareVersions": "syngo_MR_B17",
  "SpacingBetweenSlices": 2.3,
  "StationName": "MRC35422",
  "TaskName": "wmgng",
  "TotalReadoutTime": 0.0376057,
  "TxRefAmp": 306.611,
  "dcmmeta_affine": [
    [-2.326765537261963, 3.643885193582719e-10, 0.04801241308450699, 125.8595199584961],
    [0.005077327135950327, 2.314527988433838, 0.24032297730445862, -117.3231201171875],
    [0.048315685242414474, -0.24322566390037537, 2.2869060039520264, -36.18265914916992],
    [0.0, 0.0, 0.0, 1.0]
],
  "dcmmeta_reorient_transform": [
    [0.0, -1.0, 0.0, 109.0],
    [1.0, 0.0, 0.0, 0.0],
    [0.0, 0.0, 1.0, 0.0],
    [0.0, 0.0, 0.0, 1.0]
],
  "dcmmeta_shape": [110, 110, 64, 357],
  "dcmmeta_slice_dim": 2,
  "dcmmeta_version": 0.6,
  "global": {
    "const": {
      "AcquisitionMatrix": [0, 110, 110, 0],
      "AngioFlag": "N",
      "BitsAllocated": 16,
      "BitsStored": 12,
      "Columns": 880,
      "EchoNumbers": 1,
      "EchoTime": 30.0,
      "EchoTrainLength": 1,
      "FlipAngle": 85.0,
      "HighBit": 11,
      "ImageOrientationPatient": [0.99978209421957, -0.0021816639985, 0.02076064594691, 1.565732e-10, 0.99452372770406, 0.1045110282871],
      "ImagePositionPatient": [-1021.6642507318, -1024.0988805538, -174.93767140228],
      "ImageType": [
        "ORIGINAL",
        "PRIMARY",
        "FMRI",
        "NONE",
        "MB",
        "ND",
        "MOSAIC"
],
      "ImagedNucleus": "1H",
      "ImagingFrequency": 123.177246,
      "InPlanePhaseEncodingDirection": "ROW",
      "MRAcquisitionType": "2D",
      "MagneticFieldStrength": 3.0,
      "Manufacturer": "SIEMENS",
      "ManufacturerModelName": "TrioTim",
      "Modality": "MR",
      "NumberOfAverages": 1.0,
      "NumberOfPhaseEncodingSteps": 110,
      "PercentPhaseFieldOfView": 100.0,
      "PercentSampling": 100.0,
      "PerformedProcedureStepStartTime": "094343.421000",
      "PhotometricInterpretation": "MONOCHROME2",
      "PixelBandwidth": 1748.0,
      "PixelRepresentation": 0,
      "PixelSpacing": [2.3272726535797, 2.3272726535797],
      "ProtocolName": "WMGNG2_MB4_LR_SBRef",
      "ReferencedPerformedProcedureStepSequence": [
        {
          "ReferencedSOPClassUID": "1.2.840.10008.3.1.2.3.3",
          "ReferencedSOPInstanceUID": "1.3.12.2.1107.5.2.32.35422.30000020100700434346800000000"}
],
      "RepetitionTime": 1500.0,
      "Rows": 880,
      "SAR": 0.13616716393286,
      "SamplesPerPixel": 1,
      "ScanOptions": "FS",
      "ScanningSequence": "EP",
      "SequenceName": "epfid2d1_110",
      "SequenceVariant": [
        "SK",
        "SS"
],
      "SeriesDescription": "WMGNG2_MB4_LR_SBRef",
      "SeriesNumber": 20,
      "SeriesTime": "103717.250000",
      "SliceLocation": -45.608245831865,
      "SliceThickness": 2.2999999523163,
      "SmallestImagePixelValue": 0,
      "SoftwareVersions": "syngo MR B17",
      "SpacingBetweenSlices": 2.2999999685869,
      "SpecificCharacterSet": "ISO_IR 100",
      "StudyID": "1",
      "StudyTime": "094343.265000",
      "TransmitCoilName": "Body",
      "VariableFlipAngleFlag": "N",
      "WindowCenterWidthExplanation": "Algo1",
      "dBdt": 0.0},
    "slices": {}
  },
  "time": {
    "samples": {
      "AcquisitionNumber": [1, 2, 3, 4, 5, 6, 7, 8, 9, 10, 11, 12, 13, 14, 15, 16, 17, 18, 19, 20, 21, 22, 23, 24, 25, 26, 27, 28, 29, 30, 31, 32, 33, 34, 35, 36, 37, 38, 39, 40, 41, 42, 43, 44, 45, 46, 47, 48, 49, 50, 51, 52, 53, 54, 55, 56, 57, 58, 59, 60, 61, 62, 63, 64, 65, 66, 67, 68, 69, 70, 71, 72, 73, 74, 75, 76, 77, 78, 79, 80, 81, 82, 83, 84, 85, 86, 87, 88, 89, 90, 91, 92, 93, 94, 95, 96, 97, 98, 99, 100, 101, 102, 103, 104, 105, 106, 107, 108, 109, 110, 111, 112, 113, 114, 115, 116, 117, 118, 119, 120, 121, 122, 123, 124, 125, 126, 127, 128, 129, 130, 131, 132, 133, 134, 135, 136, 137, 138, 139, 140, 141, 142, 143, 144, 145, 146, 147, 148, 149, 150, 151, 152, 153, 154, 155, 156, 157, 158, 159, 160, 161, 162, 163, 164, 165, 166, 167, 168, 169, 170, 171, 172, 173, 174, 175, 176, 177, 178, 179, 180, 181, 182, 183, 184, 185, 186, 187, 188, 189, 190, 191, 192, 193, 194, 195, 196, 197, 198, 199, 200, 201, 202, 203, 204, 205, 206, 207, 208, 209, 210, 211, 212, 213, 214, 215, 216, 217, 218, 219, 220, 221, 222, 223, 224, 225, 226, 227, 228, 229, 230, 231, 232, 233, 234, 235, 236, 237, 238, 239, 240, 241, 242, 243, 244, 245, 246, 247, 248, 249, 250, 251, 252, 253, 254, 255, 256, 257, 258, 259, 260, 261, 262, 263, 264, 265, 266, 267, 268, 269, 270, 271, 272, 273, 274, 275, 276, 277, 278, 279, 280, 281, 282, 283, 284, 285, 286, 287, 288, 289, 290, 291, 292, 293, 294, 295, 296, 297, 298, 299, 300, 301, 302, 303, 304, 305, 306, 307, 308, 309, 310, 311, 312, 313, 314, 315, 316, 317, 318, 319, 320, 321, 322, 323, 324, 325, 326, 327, 328, 329, 330, 331, 332, 333, 334, 335, 336, 337, 338, 339, 340, 341, 342, 343, 344, 345, 346, 347, 348, 349, 350, 351, 352, 353, 354, 355, 356, 357],
      "AcquisitionTime": ["102726.957500", "102728.462500", "102729.970000", "102731.475000", "102732.980000", "102734.487500", "102735.992500", "102737.500000", "102739.005000", "102740.510000", "102742.017500", "102743.522500", "102745.030000", "102746.535000", "102748.040000", "102749.547500", "102751.052500", "102752.560000", "102754.065000", "102755.572500", "102757.077500", "102758.582500", "102800.090000", "102801.595000", "102803.102500", "102804.607500", "102806.112500", "102807.620000", "102809.125000", "102810.632500", "102812.137500", "102813.642500", "102815.150000", "102816.655000", "102818.162500", "102819.667500", "102821.172500", "102822.680000", "102824.185000", "102825.692500", "102827.197500", "102828.705000", "102830.210000", "102831.715000", "102833.222500", "102834.727500", "102836.235000", "102837.740000", "102839.245000", "102840.752500", "102842.257500", "102843.765000", "102845.270000", "102846.775000", "102848.282500", "102849.787500", "102851.295000", "102852.800000", "102854.305000", "102855.812500", "102857.317500", "102858.825000", "102900.330000", "102901.837500", "102903.342500", "102904.847500", "102906.355000", "102907.860000", "102909.367500", "102910.872500", "102912.377500", "102913.885000", "102915.390000", "102916.897500", "102918.402500", "102919.907500", "102921.415000", "102922.920000", "102924.427500", "102925.932500", "102927.440000", "102928.945000", "102930.450000", "102931.957500", "102933.462500", "102934.970000", "102936.475000", "102937.980000", "102939.487500", "102940.992500", "102942.500000", "102944.005000", "102945.510000", "102947.017500", "102948.522500", "102950.030000", "102951.535000", "102953.040000", "102954.547500", "102956.052500", "102957.560000", "102959.065000", "103000.572500", "103002.077500", "103003.582500", "103005.090000", "103006.595000", "103008.102500", "103009.607500", "103011.112500", "103012.620000", "103014.125000", "103015.632500", "103017.137500", "103018.642500", "103020.150000", "103021.655000", "103023.162500", "103024.667500", "103026.172500", "103027.680000", "103029.185000", "103030.692500", "103032.197500", "103033.705000", "103035.210000", "103036.715000", "103038.222500", "103039.727500", "103041.235000", "103042.740000", "103044.245000", "103045.752500", "103047.257500", "103048.765000", "103050.270000", "103051.775000", "103053.282500", "103054.787500", "103056.295000", "103057.800000", "103059.305000", "103100.812500", "103102.317500", "103103.825000", "103105.330000", "103106.837500", "103108.342500", "103109.847500", "103111.355000", "103112.860000", "103114.367500", "103115.872500", "103117.377500", "103118.885000", "103120.390000", "103121.897500", "103123.402500", "103124.907500", "103126.415000", "103127.920000", "103129.427500", "103130.932500", "103132.440000", "103133.945000", "103135.450000", "103136.957500", "103138.462500", "103139.970000", "103141.475000", "103142.980000", "103144.487500", "103145.992500", "103147.500000", "103149.005000", "103150.510000", "103152.017500", "103153.522500", "103155.030000", "103156.535000", "103158.040000", "103159.547500", "103201.052500", "103202.560000", "103204.065000", "103205.572500", "103207.077500", "103208.582500", "103210.090000", "103211.595000", "103213.102500", "103214.607500", "103216.112500", "103217.620000", "103219.125000", "103220.632500", "103222.137500", "103223.642500", "103225.150000", "103226.655000", "103228.162500", "103229.667500", "103231.172500", "103232.680000", "103234.185000", "103235.692500", "103237.197500", "103238.705000", "103240.210000", "103241.715000", "103243.222500", "103244.727500", "103246.235000", "103247.740000", "103249.245000", "103250.752500", "103252.257500", "103253.765000", "103255.270000", "103256.775000", "103258.282500", "103259.787500", "103301.295000", "103302.800000", "103304.305000", "103305.812500", "103307.317500", "103308.825000", "103310.330000", "103311.837500", "103313.342500", "103314.847500", "103316.355000", "103317.860000", "103319.367500", "103320.872500", "103322.377500", "103323.885000", "103325.390000", "103326.897500", "103328.402500", "103329.907500", "103331.415000", "103332.920000", "103334.427500", "103335.932500", "103337.440000", "103338.945000", "103340.450000", "103341.957500", "103343.462500", "103344.970000", "103346.475000", "103347.980000", "103349.487500", "103350.992500", "103352.500000", "103354.005000", "103355.510000", "103357.017500", "103358.522500", "103400.030000", "103401.535000", "103403.040000", "103404.547500", "103406.052500", "103407.560000", "103409.065000", "103410.572500", "103412.077500", "103413.582500", "103415.090000", "103416.595000", "103418.102500", "103419.607500", "103421.112500", "103422.620000", "103424.125000", "103425.632500", "103427.137500", "103428.642500", "103430.150000", "103431.655000", "103433.162500", "103434.667500", "103436.172500", "103437.680000", "103439.185000", "103440.692500", "103442.197500", "103443.705000", "103445.210000", "103446.715000", "103448.222500", "103449.727500", "103451.235000", "103452.740000", "103454.245000", "103455.752500", "103457.257500", "103458.765000", "103500.270000", "103501.775000", "103503.282500", "103504.787500", "103506.295000", "103507.800000", "103509.305000", "103510.812500", "103512.317500", "103513.825000", "103515.330000", "103516.837500", "103518.342500", "103519.847500", "103521.355000", "103522.860000", "103524.367500", "103525.872500", "103527.377500", "103528.885000", "103530.390000", "103531.897500", "103533.402500", "103534.907500", "103536.415000", "103537.920000", "103539.427500", "103540.932500", "103542.440000", "103543.945000", "103545.450000", "103546.957500", "103548.462500", "103549.970000", "103551.475000", "103552.980000", "103554.487500", "103555.992500", "103557.500000", "103559.005000", "103600.510000", "103602.017500", "103603.522500", "103605.030000", "103606.535000", "103608.040000", "103609.547500", "103611.052500", "103612.560000", "103614.065000", "103615.572500", "103617.077500", "103618.582500", "103620.090000", "103621.595000", "103623.102500"],
      "ContentTime": ["103717.250000", "103719.234000", "103720.734000", "103722.734000", "103724.734000", "103727.234000", "103729.734000", "103731.734000", "103734.234000", "103736.234000", "103738.734000", "103740.734000", "103743.234000", "103745.734000", "103748.234000", "103750.234000", "103752.234000", "103754.734000", "103756.734000", "103759.734000", "103801.734000", "103803.734000", "103806.234000", "103808.234000", "103810.734000", "103812.734000", "103815.234000", "103817.734000", "103819.734000", "103822.234000", "103824.734000", "103826.734000", "103829.234000", "103831.734000", "103833.734000", "103836.234000", "103838.734000", "103840.734000", "103843.234000", "103845.234000", "103847.734000", "103850.234000", "103852.734000", "103855.734000", "103857.734000", "103859.734000", "103902.234000", "103904.234000", "103906.734000", "103909.234000", "103911.234000", "103913.734000", "103916.234000", "103918.234000", "103920.234000", "103922.734000", "103925.234000", "103928.234000", "103929.734000", "103932.234000", "103934.234000", "103936.734000", "103938.734000", "103941.234000", "103943.734000", "103945.734000", "103948.234000", "103950.234000", "103952.734000", "103955.234000", "103957.234000", "103959.734000", "104002.234000", "104004.734000", "104007.234000", "104009.234000", "104011.734000", "104014.234000", "104016.234000", "104018.734000", "104021.234000", "104023.734000", "104025.734000", "104027.734000", "104030.234000", "104032.234000", "104034.734000", "104037.234000", "104039.234000", "104041.234000", "104043.734000", "104046.234000", "104048.734000", "104050.734000", "104053.234000", "104055.234000", "104058.234000", "104100.234000", "104102.234000", "104104.734000", "104107.234000", "104109.234000", "104111.234000", "104113.734000", "104115.734000", "104118.234000", "104120.734000", "104122.734000", "104125.234000", "104127.734000", "104130.234000", "104132.234000", "104134.734000", "104136.734000", "104138.734000", "104141.734000", "104143.734000", "104145.734000", "104148.234000", "104150.734000", "104152.734000", "104155.234000", "104157.234000", "104159.734000", "104201.734000", "104204.234000", "104206.234000", "104209.234000", "104211.234000", "104213.234000", "104215.734000", "104217.734000", "104220.234000", "104222.734000", "104225.234000", "104227.734000", "104229.234000", "104231.734000", "104234.234000", "104236.734000", "104238.734000", "104241.234000", "104243.234000", "104245.734000", "104248.234000", "104250.234000", "104252.734000", "104254.734000", "104257.234000", "104259.234000", "104302.234000", "104304.234000", "104306.234000", "104308.734000", "104311.234000", "104313.234000", "104315.734000", "104317.734000", "104320.234000", "104322.734000", "104324.734000", "104327.234000", "104329.734000", "104331.734000", "104334.234000", "104336.234000", "104339.234000", "104340.734000", "104343.234000", "104345.734000", "104347.734000", "104350.734000", "104352.234000", "104354.734000", "104357.234000", "104359.734000", "104401.734000", "104404.734000", "104406.734000", "104408.734000", "104410.734000", "104413.234000", "104415.734000", "104417.734000", "104420.734000", "104422.234000", "104425.234000", "104427.234000", "104429.234000", "104432.234000", "104434.234000", "104436.734000", "104438.734000", "104440.734000", "104443.234000", "104445.234000", "104447.734000", "104449.734000", "104452.234000", "104454.734000", "104457.234000", "104459.234000", "104501.734000", "104503.734000", "104506.234000", "104508.234000", "104511.234000", "104512.734000", "104515.234000", "104517.734000", "104519.734000", "104521.734000", "104524.234000", "104526.734000", "104528.734000", "104531.234000", "104533.234000", "104536.234000", "104537.734000", "104540.234000", "104542.734000", "104545.234000", "104547.234000", "104549.734000", "104552.234000", "104554.234000", "104556.734000", "104558.734000", "104601.234000", "104603.734000", "104605.734000", "104608.234000", "104610.734000", "104612.734000", "104615.234000", "104617.734000", "104620.234000", "104622.234000", "104624.734000", "104626.734000", "104629.234000", "104631.734000", "104633.734000", "104636.234000", "104638.234000", "104640.734000", "104643.234000", "104645.234000", "104647.734000", "104649.734000", "104652.234000", "104654.734000", "104656.734000", "104659.234000", "104701.234000", "104704.234000", "104706.734000", "104708.234000", "104711.234000", "104713.234000", "104715.734000", "104717.734000", "104720.234000", "104722.734000", "104724.734000", "104726.734000", "104729.234000", "104731.734000", "104733.734000", "104736.234000", "104738.234000", "104740.734000", "104743.234000", "104745.734000", "104748.234000", "104750.234000", "104752.234000", "104755.234000", "104757.250000", "104759.234000", "104801.234000", "104803.734000", "104805.734000", "104808.234000", "104810.234000", "104813.234000", "104815.234000", "104818.234000", "104819.734000", "104822.734000", "104824.734000", "104826.734000", "104829.734000", "104831.734000", "104833.734000", "104836.234000", "104838.234000", "104840.734000", "104843.234000", "104845.234000", "104847.234000", "104850.234000", "104852.234000", "104855.234000", "104856.734000", "104859.234000", "104902.234000", "104904.234000", "104906.734000", "104909.234000", "104911.234000", "104913.734000", "104916.234000", "104917.734000", "104920.734000", "104922.734000", "104925.234000", "104927.734000", "104929.734000", "104931.734000", "104934.234000", "104936.734000", "104939.234000", "104941.234000", "104943.734000", "104945.734000", "104947.734000", "104950.234000", "104952.734000", "104955.234000", "104957.234000", "104959.734000", "105002.234000", "105004.734000", "105006.734000", "105009.234000", "105011.234000", "105013.734000", "105015.734000", "105018.234000", "105020.734000", "105022.734000", "105025.234000", "105027.734000", "105029.734000", "105031.734000", "105034.234000", "105036.734000", "105038.734000", "105041.234000", "105043.734000", "105045.734000", "105047.734000", "105050.234000", "105052.234000", "105054.734000", "105056.734000"],
      "DataSetTrailingPadding": [
        "\u0000\u0000\u0000\u0000\u0000\u0000\u0000\u0000\u0000\u0000\u0000\u0000\u0000\u0000\u0000\u0000\u0000\u0000\u0000\u0000\u0000\u0000\u0000\u0000\u0000\u0000\u0000\u0000",
        "\u0000\u0000\u0000\u0000\u0000\u0000\u0000\u0000\u0000\u0000\u0000\u0000\u0000\u0000\u0000\u0000\u0000\u0000\u0000\u0000\u0000\u0000\u0000\u0000\u0000\u0000",
        "\u0000\u0000\u0000\u0000\u0000\u0000\u0000\u0000\u0000\u0000\u0000\u0000\u0000\u0000\u0000\u0000\u0000\u0000\u0000\u0000\u0000\u0000\u0000\u0000\u0000\u0000",
        "\u0000\u0000\u0000\u0000\u0000\u0000\u0000\u0000\u0000\u0000\u0000\u0000\u0000\u0000\u0000\u0000\u0000\u0000\u0000\u0000\u0000\u0000\u0000\u0000\u0000\u0000\u0000\u0000",
        "\u0000\u0000\u0000\u0000\u0000\u0000\u0000\u0000\u0000\u0000\u0000\u0000\u0000\u0000\u0000\u0000\u0000\u0000\u0000\u0000\u0000\u0000\u0000\u0000\u0000\u0000\u0000\u0000",
        "\u0000\u0000\u0000\u0000\u0000\u0000\u0000\u0000\u0000\u0000\u0000\u0000\u0000\u0000\u0000\u0000\u0000\u0000\u0000\u0000\u0000\u0000\u0000\u0000\u0000\u0000\u0000\u0000",
        "\u0000\u0000\u0000\u0000\u0000\u0000\u0000\u0000\u0000\u0000\u0000\u0000\u0000\u0000\u0000\u0000\u0000\u0000\u0000\u0000\u0000\u0000\u0000\u0000\u0000\u0000",
        "\u0000\u0000\u0000\u0000\u0000\u0000\u0000\u0000\u0000\u0000\u0000\u0000\u0000\u0000\u0000\u0000\u0000\u0000\u0000\u0000\u0000\u0000\u0000\u0000\u0000\u0000",
        "\u0000\u0000\u0000\u0000\u0000\u0000\u0000\u0000\u0000\u0000\u0000\u0000\u0000\u0000\u0000\u0000\u0000\u0000\u0000\u0000\u0000\u0000\u0000\u0000\u0000\u0000\u0000\u0000",
        "\u0000\u0000\u0000\u0000\u0000\u0000\u0000\u0000\u0000\u0000\u0000\u0000\u0000\u0000\u0000\u0000\u0000\u0000\u0000\u0000\u0000\u0000\u0000\u0000",
        "\u0000\u0000\u0000\u0000\u0000\u0000\u0000\u0000\u0000\u0000\u0000\u0000\u0000\u0000\u0000\u0000\u0000\u0000\u0000\u0000\u0000\u0000\u0000\u0000",
        "\u0000\u0000\u0000\u0000\u0000\u0000\u0000\u0000\u0000\u0000\u0000\u0000\u0000\u0000\u0000\u0000\u0000\u0000\u0000\u0000\u0000\u0000",
        "\u0000\u0000\u0000\u0000\u0000\u0000\u0000\u0000\u0000\u0000\u0000\u0000\u0000\u0000\u0000\u0000\u0000\u0000\u0000\u0000\u0000\u0000",
        "\u0000\u0000\u0000\u0000\u0000\u0000\u0000\u0000\u0000\u0000\u0000\u0000\u0000\u0000\u0000\u0000\u0000\u0000\u0000\u0000\u0000\u0000\u0000\u0000",
        "\u0000\u0000\u0000\u0000\u0000\u0000\u0000\u0000\u0000\u0000\u0000\u0000\u0000\u0000\u0000\u0000\u0000\u0000\u0000\u0000\u0000\u0000\u0000\u0000",
        "\u0000\u0000\u0000\u0000\u0000\u0000\u0000\u0000\u0000\u0000\u0000\u0000\u0000\u0000\u0000\u0000\u0000\u0000\u0000\u0000\u0000\u0000\u0000\u0000",
        "\u0000\u0000\u0000\u0000\u0000\u0000\u0000\u0000\u0000\u0000\u0000\u0000\u0000\u0000\u0000\u0000\u0000\u0000\u0000\u0000\u0000\u0000",
        "\u0000\u0000\u0000\u0000\u0000\u0000\u0000\u0000\u0000\u0000\u0000\u0000\u0000\u0000\u0000\u0000\u0000\u0000\u0000\u0000\u0000\u0000",
        "\u0000\u0000\u0000\u0000\u0000\u0000\u0000\u0000\u0000\u0000\u0000\u0000\u0000\u0000\u0000\u0000\u0000\u0000\u0000\u0000\u0000\u0000\u0000\u0000",
        "\u0000\u0000\u0000\u0000\u0000\u0000\u0000\u0000\u0000\u0000\u0000\u0000\u0000\u0000\u0000\u0000\u0000\u0000\u0000\u0000\u0000\u0000\u0000\u0000\u0000\u0000",
        "\u0000\u0000\u0000\u0000\u0000\u0000\u0000\u0000\u0000\u0000\u0000\u0000\u0000\u0000\u0000\u0000\u0000\u0000\u0000\u0000\u0000\u0000",
        "\u0000\u0000\u0000\u0000\u0000\u0000\u0000\u0000\u0000\u0000\u0000\u0000\u0000\u0000\u0000\u0000\u0000\u0000\u0000\u0000\u0000\u0000",
        "\u0000\u0000\u0000\u0000\u0000\u0000\u0000\u0000\u0000\u0000\u0000\u0000\u0000\u0000\u0000\u0000\u0000\u0000\u0000\u0000\u0000\u0000",
        "\u0000\u0000\u0000\u0000\u0000\u0000\u0000\u0000\u0000\u0000\u0000\u0000\u0000\u0000\u0000\u0000\u0000\u0000\u0000\u0000\u0000\u0000\u0000\u0000",
        "\u0000\u0000\u0000\u0000\u0000\u0000\u0000\u0000\u0000\u0000\u0000\u0000\u0000\u0000\u0000\u0000\u0000\u0000\u0000\u0000\u0000\u0000\u0000\u0000",
        "\u0000\u0000\u0000\u0000\u0000\u0000\u0000\u0000\u0000\u0000\u0000\u0000\u0000\u0000\u0000\u0000\u0000\u0000\u0000\u0000\u0000\u0000",
        "\u0000\u0000\u0000\u0000\u0000\u0000\u0000\u0000\u0000\u0000\u0000\u0000\u0000\u0000\u0000\u0000\u0000\u0000\u0000\u0000\u0000\u0000",
        "\u0000\u0000\u0000\u0000\u0000\u0000\u0000\u0000\u0000\u0000\u0000\u0000\u0000\u0000\u0000\u0000\u0000\u0000\u0000\u0000\u0000\u0000",
        "\u0000\u0000\u0000\u0000\u0000\u0000\u0000\u0000\u0000\u0000\u0000\u0000\u0000\u0000\u0000\u0000\u0000\u0000\u0000\u0000\u0000\u0000\u0000\u0000",
        "\u0000\u0000\u0000\u0000\u0000\u0000\u0000\u0000\u0000\u0000\u0000\u0000\u0000\u0000\u0000\u0000\u0000\u0000\u0000\u0000\u0000\u0000\u0000\u0000",
        "\u0000\u0000\u0000\u0000\u0000\u0000\u0000\u0000\u0000\u0000\u0000\u0000\u0000\u0000\u0000\u0000\u0000\u0000\u0000\u0000\u0000\u0000",
        "\u0000\u0000\u0000\u0000\u0000\u0000\u0000\u0000\u0000\u0000\u0000\u0000\u0000\u0000\u0000\u0000\u0000\u0000\u0000\u0000\u0000\u0000",
        "\u0000\u0000\u0000\u0000\u0000\u0000\u0000\u0000\u0000\u0000\u0000\u0000\u0000\u0000\u0000\u0000\u0000\u0000\u0000\u0000\u0000\u0000",
        "\u0000\u0000\u0000\u0000\u0000\u0000\u0000\u0000\u0000\u0000\u0000\u0000\u0000\u0000\u0000\u0000\u0000\u0000\u0000\u0000\u0000\u0000\u0000\u0000",
        "\u0000\u0000\u0000\u0000\u0000\u0000\u0000\u0000\u0000\u0000\u0000\u0000\u0000\u0000\u0000\u0000\u0000\u0000\u0000\u0000\u0000\u0000\u0000\u0000",
        "\u0000\u0000\u0000\u0000\u0000\u0000\u0000\u0000\u0000\u0000\u0000\u0000\u0000\u0000\u0000\u0000\u0000\u0000\u0000\u0000\u0000\u0000",
        "\u0000\u0000\u0000\u0000\u0000\u0000\u0000\u0000\u0000\u0000\u0000\u0000\u0000\u0000\u0000\u0000\u0000\u0000\u0000\u0000\u0000\u0000",
        "\u0000\u0000\u0000\u0000\u0000\u0000\u0000\u0000\u0000\u0000\u0000\u0000\u0000\u0000\u0000\u0000\u0000\u0000\u0000\u0000\u0000\u0000\u0000\u0000",
        "\u0000\u0000\u0000\u0000\u0000\u0000\u0000\u0000\u0000\u0000\u0000\u0000\u0000\u0000\u0000\u0000\u0000\u0000\u0000\u0000\u0000\u0000\u0000\u0000\u0000\u0000\u0000\u0000",
        "\u0000\u0000\u0000\u0000\u0000\u0000\u0000\u0000\u0000\u0000\u0000\u0000\u0000\u0000\u0000\u0000\u0000\u0000\u0000\u0000\u0000\u0000\u0000\u0000\u0000\u0000\u0000\u0000\u0000\u0000",
        "\u0000\u0000\u0000\u0000\u0000\u0000\u0000\u0000\u0000\u0000\u0000\u0000\u0000\u0000\u0000\u0000\u0000\u0000\u0000\u0000\u0000\u0000",
        "\u0000\u0000\u0000\u0000\u0000\u0000\u0000\u0000\u0000\u0000\u0000\u0000\u0000\u0000\u0000\u0000\u0000\u0000\u0000\u0000\u0000\u0000\u0000\u0000",
        "\u0000\u0000\u0000\u0000\u0000\u0000\u0000\u0000\u0000\u0000\u0000\u0000\u0000\u0000\u0000\u0000\u0000\u0000\u0000\u0000\u0000\u0000\u0000\u0000",
        "\u0000\u0000\u0000\u0000\u0000\u0000\u0000\u0000\u0000\u0000\u0000\u0000\u0000\u0000\u0000\u0000\u0000\u0000\u0000\u0000\u0000\u0000\u0000\u0000",
        "\u0000\u0000\u0000\u0000\u0000\u0000\u0000\u0000\u0000\u0000\u0000\u0000\u0000\u0000\u0000\u0000\u0000\u0000\u0000\u0000\u0000\u0000\u0000\u0000",
        "\u0000\u0000\u0000\u0000\u0000\u0000\u0000\u0000\u0000\u0000\u0000\u0000\u0000\u0000\u0000\u0000\u0000\u0000\u0000\u0000\u0000\u0000",
        "\u0000\u0000\u0000\u0000\u0000\u0000\u0000\u0000\u0000\u0000\u0000\u0000\u0000\u0000\u0000\u0000\u0000\u0000\u0000\u0000\u0000\u0000",
        "\u0000\u0000\u0000\u0000\u0000\u0000\u0000\u0000\u0000\u0000\u0000\u0000\u0000\u0000\u0000\u0000\u0000\u0000\u0000\u0000\u0000\u0000\u0000\u0000",
        "\u0000\u0000\u0000\u0000\u0000\u0000\u0000\u0000\u0000\u0000\u0000\u0000\u0000\u0000\u0000\u0000\u0000\u0000\u0000\u0000\u0000\u0000\u0000\u0000",
        "\u0000\u0000\u0000\u0000\u0000\u0000\u0000\u0000\u0000\u0000\u0000\u0000\u0000\u0000\u0000\u0000\u0000\u0000\u0000\u0000\u0000\u0000\u0000\u0000",
        "\u0000\u0000\u0000\u0000\u0000\u0000\u0000\u0000\u0000\u0000\u0000\u0000\u0000\u0000\u0000\u0000\u0000\u0000\u0000\u0000\u0000\u0000",
        "\u0000\u0000\u0000\u0000\u0000\u0000\u0000\u0000\u0000\u0000\u0000\u0000\u0000\u0000\u0000\u0000\u0000\u0000\u0000\u0000\u0000\u0000",
        "\u0000\u0000\u0000\u0000\u0000\u0000\u0000\u0000\u0000\u0000\u0000\u0000\u0000\u0000\u0000\u0000\u0000\u0000\u0000\u0000\u0000\u0000\u0000\u0000",
        "\u0000\u0000\u0000\u0000\u0000\u0000\u0000\u0000\u0000\u0000\u0000\u0000\u0000\u0000\u0000\u0000\u0000\u0000\u0000\u0000\u0000\u0000\u0000\u0000",
        "\u0000\u0000\u0000\u0000\u0000\u0000\u0000\u0000\u0000\u0000\u0000\u0000\u0000\u0000\u0000\u0000\u0000\u0000\u0000\u0000\u0000\u0000\u0000\u0000",
        "\u0000\u0000\u0000\u0000\u0000\u0000\u0000\u0000\u0000\u0000\u0000\u0000\u0000\u0000\u0000\u0000\u0000\u0000\u0000\u0000\u0000\u0000",
        "\u0000\u0000\u0000\u0000\u0000\u0000\u0000\u0000\u0000\u0000\u0000\u0000\u0000\u0000\u0000\u0000\u0000\u0000",
        "\u0000\u0000\u0000\u0000\u0000\u0000\u0000\u0000\u0000\u0000\u0000\u0000\u0000\u0000\u0000\u0000\u0000\u0000\u0000\u0000",
        "\u0000\u0000\u0000\u0000\u0000\u0000\u0000\u0000\u0000\u0000\u0000\u0000\u0000\u0000\u0000\u0000\u0000\u0000",
        "\u0000\u0000\u0000\u0000\u0000\u0000\u0000\u0000\u0000\u0000\u0000\u0000\u0000\u0000\u0000\u0000\u0000\u0000",
        "\u0000\u0000\u0000\u0000\u0000\u0000\u0000\u0000\u0000\u0000\u0000\u0000\u0000\u0000\u0000\u0000\u0000\u0000",
        "\u0000\u0000\u0000\u0000\u0000\u0000\u0000\u0000\u0000\u0000\u0000\u0000\u0000\u0000\u0000\u0000\u0000\u0000",
        "\u0000\u0000\u0000\u0000\u0000\u0000\u0000\u0000\u0000\u0000\u0000\u0000\u0000\u0000\u0000\u0000\u0000\u0000\u0000\u0000",
        "\u0000\u0000\u0000\u0000\u0000\u0000\u0000\u0000\u0000\u0000\u0000\u0000\u0000\u0000\u0000\u0000\u0000\u0000",
        "\u0000\u0000\u0000\u0000\u0000\u0000\u0000\u0000\u0000\u0000\u0000\u0000\u0000\u0000\u0000\u0000\u0000\u0000",
        "\u0000\u0000\u0000\u0000\u0000\u0000\u0000\u0000\u0000\u0000\u0000\u0000\u0000\u0000\u0000\u0000\u0000\u0000",
        "\u0000\u0000\u0000\u0000\u0000\u0000\u0000\u0000\u0000\u0000\u0000\u0000\u0000\u0000\u0000\u0000\u0000\u0000",
        "\u0000\u0000\u0000\u0000\u0000\u0000\u0000\u0000\u0000\u0000\u0000\u0000\u0000\u0000\u0000\u0000\u0000\u0000\u0000\u0000",
        "\u0000\u0000\u0000\u0000\u0000\u0000\u0000\u0000\u0000\u0000\u0000\u0000\u0000\u0000\u0000\u0000\u0000\u0000",
        "\u0000\u0000\u0000\u0000\u0000\u0000\u0000\u0000\u0000\u0000\u0000\u0000\u0000\u0000\u0000\u0000\u0000\u0000",
